Time,Theta
0.00833333377,-0.0582184754
0.0166666675,-0.0578266717
0.0250000022,-0.0574522242
0.0333333351,-0.0572331399
0.0416666679,-0.057030499
0.0500000007,-0.0569825917
0.0583333336,-0.0559109747
0.0666666701,-0.0548539124
0.075000003,-0.053948395
0.0833333358,-0.0530544594
0.0916666687,-0.0523093678
0.100000001,-0.0515733957
0.108333334,-0.0509840548
0.116666667,-0.050401818
0.125,-0.0499644652
0.13333334,-0.0495326668
0.141666681,-0.0492444411
0.150000021,-0.0489606783
0.158333361,-0.0488196202
0.166666701,-0.0476420894
0.175000042,-0.0464667007
0.183333382,-0.0454303622
0.191666722,-0.0443928353
0.200000063,-0.0434912592
0.208333403,-0.0425855815
0.216666743,-0.0418131277
0.225000083,-0.0410340428
0.233333424,-0.0403858721
0.241666764,-0.0397289097
0.250000089,-0.039200902
0.258333415,-0.0386623107
0.26666674,-0.0382510722
0.275000066,-0.0378278047
0.283333391,-0.0375306383
0.291666716,-0.0372203588
0.300000042,-0.0370352603
0.308333367,-0.0357953757
0.316666692,-0.0345398746
0.325000018,-0.0334056169
0.333333343,-0.0322521403
0.341666669,-0.031216491
0.349999994,-0.0301583223
0.358333319,-0.0292148367
0.366666645,-0.0282458253
0.37499997,-0.0273886267
0.383333296,-0.0265031587
0.391666621,-0.0257268939
0.399999946,-0.0249198526
0.408333272,-0.0242196415
0.416666597,-0.0234863795
0.424999923,-0.0228578001
0.433333248,-0.0221941229
0.441666573,-0.0216331892
0.449999899,-0.0210353099
0.458333224,-0.0205384344
0.466666549,-0.0200029649
0.474999875,-0.0195669495
0.4833332,-0.0190908834
0.491666526,-0.0187128987
0.499999851,-0.0182935707
0.508333206,-0.0179711264
0.516666532,-0.0176062249
0.524999857,-0.0173371714
0.533333182,-0.0170247015
0.541666508,-0.016807206
0.549999833,-0.0165454913
0.558333158,-0.0163780339
0.566666484,-0.016165711
0.574999809,-0.0160470605
0.583333135,-0.015883049
0.59166646,-0.0158122908
0.599999785,-0.0146542033
0.608333111,-0.0134487581
0.616666436,-0.0123330122
0.624999762,-0.0111664254
0.633333087,-0.0100861154
0.641666412,-0.00895159133
0.649999738,-0.0079000257
0.658333063,-0.006790963
0.666666389,-0.00576161873
0.674999714,-0.00467156945
0.683333039,-0.00365806185
0.691666365,-0.00258069416
0.69999969,-0.00157673447
0.708333015,-0.00050579221
0.716666341,0.000494850625
0.724999666,0.00156558317
0.733332992,0.00256912014
0.741666317,0.0036458564
0.749999642,0.00361676398
0.758332968,0.003523655
0.766666293,0.00350527768
0.774999619,0.003422715
0.783332944,0.00341473124
0.791666269,0.00334242638
0.799999595,0.00334457913
0.80833292,0.00328230415
0.816666245,0.00329439645
0.824999571,0.00324198534
0.833332896,0.0032638798
0.841666222,0.0032212236
0.849999547,0.0032528406
0.858332872,0.00321988948
0.866666198,0.00326120923
0.874999523,0.00323797227
0.883332849,0.00328903203
0.891666174,0.00327557675
0.899999499,0.00333647337
0.908332825,0.00333292433
0.91666615,0.00340381311
0.924999475,0.00341035635
0.933332801,0.00349145196
0.941666126,0.00350833265
0.949999452,0.0035999117
0.958332777,0.0036274374
0.966666102,0.00372983888
0.974999428,0.00376838096
0.983332753,0.0038820086
0.991666079,0.00393200433
0.999999404,0.00405733008
1.00833273,0.00411928492
1.01666605,0.00425684964
1.02499938,0.00433134148
1.03333271,0.00448175985
1.04166603,0.00456944155
1.04999936,0.00473340508
1.05833268,0.00483500725
1.06666601,0.00501328893
1.07499933,0.00512962835
1.08333266,0.0053230864
1.09166598,0.00545506598
1.09999931,0.00566464849
1.10833263,0.00581326289
1.11666596,0.00604001852
1.12499928,0.0062063653
1.13333261,0.00645143911
1.14166594,0.00663672155
1.14999926,0.00690137409
1.15833259,0.0071069072
1.16666591,0.00739251403
1.17499924,0.00761973439
1.18333256,0.00792779494
1.19166589,0.00817827135
1.19999921,0.00851042103
1.20833254,0.00878585782
1.21666586,0.00914387777
1.22499919,0.00944613107
1.23333251,0.00983195473
1.24166584,0.0101630408
1.24999917,0.0105787665
1.25833249,0.0109408712
1.26666582,0.0113887805
1.27499914,0.0117842816
1.28333247,0.0122668454
1.29166579,0.012698316
1.29999912,0.0132182147
1.30833244,0.0136884423
1.31666577,0.0142485788
1.32499909,0.0147605827
1.33333242,0.0153640974
1.34166574,0.0159211531
1.34999907,0.0165714491
1.3583324,0.0171770938
1.36666572,0.01787786
1.37499905,0.0185359232
1.38333237,0.0192911364
1.3916657,0.0189642347
1.39999902,0.0185963642
1.40833235,0.0183258262
1.41666567,0.0180133563
1.424999,0.0177973323
1.43333232,0.0175385848
1.44166565,0.0173755772
1.44999897,0.0171691999
1.4583323,0.0170580037
1.46666563,0.0169029571
1.47499895,0.0168426912
1.48333228,0.016738249
1.4916656,0.0167283323
1.49999893,0.0166740548
1.50833225,0.0167142078
1.51666558,0.0167099815
1.5249989,0.0168002341
1.53333223,0.0168462265
1.54166555,0.0169868954
1.54999888,0.0170835778
1.5583322,0.0172752906
1.56666553,0.0174234509
1.57499886,0.0176671427
1.58333218,0.0178678595
1.59166551,0.0181647707
1.59999883,0.0184194483
1.60833216,0.018771138
1.61666548,0.0190814994
1.62499881,0.0194898639
1.63333213,0.0198579766
1.64166546,0.0203252435
1.64999878,0.0207534973
1.65833211,0.0212822463
1.66666543,0.0217734165
1.67499876,0.0223666001
1.68333209,0.0218823757
1.69166541,0.021361582
1.69999874,0.020942267
1.70833206,0.0204849634
1.71666539,0.0201278254
1.72499871,0.0197314657
1.73333204,0.019434141
1.74166536,0.0190965459
1.74999869,0.0188570302
1.75833201,0.0185763817
1.76666534,0.0183930248
1.77499866,0.0181678273
1.78333199,0.0180393048
1.79166532,0.0178684071
1.79999864,0.0177937374
1.80833197,0.0176763162
1.81666529,0.0176548269
1.82499862,0.0175903738
1.83333194,0.0176217258
1.84166527,0.0176100507
1.84999859,0.0176941995
1.85833192,0.017735431
1.86666524,0.0178726744
1.87499857,0.017967267
1.88333189,0.0181582123
1.89166522,0.0183069222
1.89999855,0.018552484
1.90833187,0.0187564045
1.9166652,0.0190578457
1.92499852,0.0193183925
1.93333185,0.0196772981
1.94166517,0.0199962426
1.9499985,0.0204145536
1.95833182,0.020793993
1.96666515,0.0212739892
1.97499847,0.0206749234
1.9833318,0.0200374797
1.99166512,0.0194995496
1.99999845,0.018921474
2.00833178,0.0184412338
2.01666522,0.0179192573
2.02499866,0.0174936093
2.03333211,0.0170248002
2.04166555,0.0166509766
2.049999,0.0162327178
2.05833244,0.0159082543
2.06666589,0.0155382399
2.07499933,0.0152609786
2.08333278,0.0149371875
2.09166622,0.0147052472
2.09999967,0.0144259389
2.10833311,0.0142377112
2.11666656,0.0140014086
2.125,0.0138555467
2.13333344,0.0136610344
2.14166689,0.0135564525
2.15000033,0.0134027647
2.15833378,0.0133386133
2.16666722,0.0132250283
2.17500067,0.0132007124
2.18333411,0.0131267495
2.19166756,0.013141904
2.200001,0.0131073212
2.20833445,0.0131618232
2.21666789,0.0131666139
2.22500134,0.0132605731
2.23333478,0.0133049674
2.24166822,0.0134387361
2.25000167,0.0135231977
2.25833511,0.0136973588
2.26666856,0.0138225984
2.275002,0.0140379798
2.28333545,0.0142049501
2.29166889,0.0144626303
2.30000234,0.014672529
2.30833578,0.014973836
2.31666923,0.0152281253
2.32500267,0.015574649
2.33333611,0.0158750489
2.34166956,0.0162686538
2.350003,0.0166171696
2.35833645,0.0170599911
2.36666989,0.0164173301
2.37500334,0.0157299135
2.38333678,0.015135562
2.39167023,0.0144945262
2.40000367,0.013944705
2.40833712,0.0133464066
2.41667056,0.0128375972
2.42500401,0.0122786481
2.43333745,0.0118075889
2.44167089,0.0112848394
2.45000434,0.0108484877
2.45833778,0.0103590004
2.46667123,0.0099545233
2.47500467,0.00949556939
2.48333812,0.00912032742
2.49167156,0.00868935604
2.50000501,0.00834088586
2.50833845,0.00793551374
2.5166719,0.00761150988
2.52500534,0.00722950976
2.53333879,0.00692782039
2.54167223,0.00656710519
2.55000567,0.00628570607
2.55833912,0.00594431674
2.56667256,0.00568130892
2.57500601,0.00535740145
2.58333945,0.00511099491
2.5916729,0.00480283331
2.60000634,0.00457133958
2.60833979,0.0042772796
2.61667323,0.0040590982
2.62500668,0.00377758197
2.63334012,0.00357119483
2.64167356,0.00330074015
2.65000701,0.00310469884
2.65834045,0.00284388987
2.6666739,0.00265680836
2.67500734,0.00240428629
2.68334079,0.00222483254
2.69167423,0.00197928958
2.70000768,0.00180617766
2.70834112,0.00156634825
2.71667457,0.00139833044
2.72500801,0.00116298301
2.73334146,0.000998842297
2.7416749,0.000766772893
2.75000834,0.000605315901
2.75834179,0.00037534014
2.76667523,0.000215389955
2.77500868,-1.36638173e-05
2.78334212,-0.000173275243
2.79167557,-0.000402572827
2.80000901,-0.000563011039
2.80834246,-0.000793719606
2.8166759,-0.00095615501
2.82500935,-0.0011894498
2.83334279,-0.00135506445
2.84167624,-0.00159213622
2.85000968,-0.001762131
2.85834312,-0.00200419268
2.86667657,-0.00217979448
2.87501001,-0.00242808904
2.88334346,-0.00261055795
2.8916769,-0.00286636455
2.90001035,-0.00305700232
2.90834379,-0.00332164578
2.91667724,-0.00352180284
2.92501068,-0.00379666104
2.93334413,-0.00400774321
2.94167757,-0.00429425389
2.95001101,-0.00451773405
2.95834446,-0.00481740572
2.9666779,-0.00505483011
2.97501135,-0.0053692502
2.98334479,-0.00562224817
2.99167824,-0.0059530912
3.00001168,-0.00622338476
3.00834513,-0.00657242257
3.01667857,-0.00686184037
3.02501202,-0.00723095611
3.03334546,-0.00754143577
3.04167891,-0.00793263037
3.05001235,-0.00826623756
3.05834579,-0.00868164655
3.06667924,-0.00904058944
3.07501268,-0.00948249083
3.08334613,-0.00986912288
3.09167957,-0.0103399521
3.10001302,-0.010756799
3.10834646,-0.0112591665
3.11667991,-0.0106672449
3.12501335,-0.0100219334
3.1333468,-0.0094611384
3.14168024,-0.00884514302
3.15001369,-0.00831189938
3.15834713,-0.00772172818
3.16668057,-0.00721262395
3.17501402,-0.00664494094
3.18334746,-0.00615670951
3.19168091,-0.00560831372
3.20001435,-0.00513781607
3.2083478,-0.00460562482
3.21668124,-0.00414982531
3.22501469,-0.00363084953
3.23334813,-0.00318680401
3.24168158,-0.00267813704
3.25001502,-0.00224297261
3.25834846,-0.00174177019
3.26668191,-0.00131266692
3.27501535,-0.000816130254
3.2833488,-0.000390304544
3.29168224,0.000104337501
3.30001569,0.000529648212
3.30834913,0.00102515449
3.31668258,0.00145270955
3.32501602,0.00195184373
3.33334947,0.00238441559
3.34168291,0.00288996263
3.35001636,0.00333035248
3.3583498,0.00384513475
3.36668324,0.00429619057
3.37501669,0.00482308632
3.38335013,0.00528772036
3.39168358,0.00582967838
3.40001702,0.00526914466
3.40835047,0.00464712223
3.41668391,0.00410156325
3.42501736,0.00349276396
3.4333508,0.00295869703
3.44168425,0.00235967478
3.45001769,0.00183368544
3.45835114,0.00124105392
3.46668458,0.000719779171
3.47501802,0.00013019082
3.48335147,-0.000389705761
3.49168491,-0.00097957917
3.50001836,-0.000459665549
3.5083518,0.000128951709
3.51668525,0.000648265705
3.52501869,0.00123794435
3.53335214,0.000718223222
3.54168558,0.000130186163
3.55001903,-0.0003881593
3.55835247,-0.000976479496
3.56668591,-0.000455008005
3.57501936,0.000135173832
3.5833528,-0.000385697669
3.59168625,-0.000976539857
3.60001969,-0.000457590329
3.60835314,0.00013006595
3.61668658,0.000648420712
3.62502003,0.0012371405
3.63335347,0.000716459414
3.64168692,0.00012745992
3.65002036,-0.000391851907
3.65835381,-0.000981143909
3.66668725,-0.000460651238
3.67502069,0.00012854347
3.68335414,-0.000393325055
3.69168758,-0.00098517572
3.70002103,-0.000467247242
3.70835447,0.000119373522
3.71668792,0.00063667685
3.72502136,0.00122432748
3.73335481,0.000702558493
3.74168825,0.000112450332
3.7500217,-0.000407992746
3.75835514,-0.000998440082
3.76668859,-0.000479128386
3.77502203,0.000108857785
3.78335547,0.000627510657
3.79168892,0.00121649692
3.80002236,0.000696051458
3.80835581,0.000107257125
3.81668925,-0.00041187997
3.8250227,-0.0010010273
3.83335614,-0.000480419694
3.84168959,0.000108860222
3.85002303,-0.000412952562
3.85835648,-0.0010047768
3.86668992,-0.000486851612
3.87502337,9.97365714e-05
3.88335681,0.000616977981
3.89169025,0.00120453734
3.9000237,0.000682647165
3.90835714,9.2387847e-05
3.91669059,-0.000428236381
3.92502403,-0.0010188953
3.93335748,-0.000499825866
3.94169092,8.78868595e-05
3.95002437,0.000606234942
3.95835781,0.00119488477
3.96669126,0.000674070325
3.9750247,8.48739874e-05
3.98335814,-0.000434698595
3.99169159,-0.0010243156
4.0000248,-0.00050421257
4.008358,8.45273607e-05
4.01669121,0.000603897497
4.02502441,0.00119356543
4.03335762,0.000673767528
4.04169083,8.55871112e-05
4.05002403,-0.000432968547
4.05835724,-0.00102156622
4.06669044,-0.000500439957
4.07502365,8.9328656e-05
4.08335686,-0.000432024797
4.09169006,-0.00102341839
4.10002327,-0.000505090575
4.10835648,8.18729532e-05
4.11668968,0.00059946283
4.12502289,0.00118734443
4.13335609,0.00066575082
4.1416893,7.57626112e-05
4.15002251,-0.000444615376
4.15835571,-0.00103505235
4.16668892,-0.000515785418
4.17502213,7.2100971e-05
4.18335533,0.000590598967
4.19168854,0.00117937534
4.20002174,0.000658664212
4.20835495,6.95480048e-05
4.21668816,-0.000449967483
4.22502136,-0.00103955029
4.23335457,-0.000519435969
4.24168777,6.9292204e-05
4.25002098,0.000588627649
4.25835419,0.00117823842
4.26668739,0.000658359902
4.2750206,7.00757882e-05
4.28335381,-0.000448606734
4.29168701,-0.00103735446
4.30002022,-0.00051640172
4.30835342,7.31692853e-05
4.31668663,-0.000448405917
4.32501984,-0.00104004599
4.33335304,-0.000521989656
4.34168625,6.46770932e-05
4.35001945,0.00058194442
4.35835266,0.00116947724
4.36668587,0.000647507899
4.37501907,5.71168894e-05
4.38335228,-0.00046369186
4.39168549,-0.00105458824
4.40001869,-0.000535810017
4.4083519,5.15577776e-05
4.4166851,0.000569506432
4.42501831,0.00115770171
4.43335152,0.00063637743
4.44168472,4.66145029e-05
4.45001793,-0.000473581807
4.45835114,-0.00106388074
4.46668434,-0.000544518931
4.47501755,4.34192261e-05
4.48335075,0.000561926048
4.49168396,0.0011506679
4.50001717,0.000629879534
4.50835037,4.0642899e-05
4.51668358,-0.000479036273
4.52501678,-0.00106882607
4.53334999,-0.000548962504
4.5416832,3.94703384e-05
4.5500164,0.000558465836
4.55834961,0.00114769128
4.56668282,0.000627381727
4.57501602,3.86201391e-05
4.58334923,-0.000480586983
4.59168243,-0.00106990733
4.60001564,-0.000549576129
4.60834885,3.93237824e-05
4.61668205,0.000558786152
4.62501526,0.00114847883
4.63334846,0.000628637674
4.64168167,4.03463928e-05
4.65001488,-0.00047838781
4.65834808,-0.00106723199
4.66668129,-0.000546420459
4.6750145,4.29644497e-05
4.6833477,0.000562917208
4.69168091,0.00115310645
4.70001411,0.000633768737
4.70834732,4.5988545e-05
4.71668053,-0.000472226267
4.72501373,-0.00106054184
4.73334694,-0.000539191824
4.74168015,5.07423501e-05
4.75001335,-0.000470503292
4.75834656,-0.00106184708
4.76667976,-0.000543526839
4.77501297,4.33713831e-05
4.78334618,0.000560838322
4.79167938,0.00114853901
4.80001259,0.000626706053
4.80834579,3.64202933e-05
4.816679,-0.000484314136
4.82501221,-0.00107516721
4.83334541,-0.000556376472
4.84167862,3.0972893e-05
4.85001183,0.000548872282
4.85834503,0.00113698747
4.86667824,0.000615551951
4.87501144,2.56467301e-05
4.88334465,-0.000494723383
4.89167786,-0.00108522782
4.90001106,-0.000566103612
4.90834427,2.1564525e-05
4.91667747,0.000539768604
4.92501068,0.00112817471
4.93334389,0.000607016729
4.94167709,1.73761309e-05
4.9500103,-0.000502741779
4.95834351,-0.00109300599
4.96667671,-0.000573653146
4.97500992,1.42323452e-05
4.98334312,0.000532642705
4.99167633,0.00112124416
5.00000954,0.000600271218
5.00834274,1.08054574e-05
5.01667595,-0.000509147474
5.02500916,-0.00109925645
5.03334236,-0.000579757791
5.04167557,8.26428004e-06
5.05000877,0.000526802265
5.05834198,0.0011155227
5.06667519,0.000594659767
5.07500839,5.29586214e-06
5.0833416,-0.000514563522
5.0916748,-0.00110458711
5.10000801,-0.00058501109
5.10834122,3.0806732e-06
5.11667442,0.000521680573
5.12500763,0.00111045537
5.13334084,0.000589639647
5.14167404,3.1512036e-07
5.15000725,-0.000519512338
5.15834045,-0.00110951136
5.16667366,-0.000589917938
5.17500687,-1.81639825e-06
5.18334007,0.000516785949
5.19167328,0.00110555557
5.20000648,0.00058472727
5.20833969,-4.61700938e-06
5.2166729,-0.00052447163
5.2250061,-0.00111450523
5.23333931,-0.000594954065
5.24167252,-6.90221623e-06
5.25000572,0.000511642778
5.25833893,0.00110034773
5.26667213,0.000579446612
5.27500534,-9.97849202e-06
5.28333855,-0.000529921846
5.29167175,-0.00112005218
5.30000496,-0.000600606261
5.30833817,-1.2668107e-05
5.31667137,0.00050575455
5.32500458,0.00109432847
5.33333778,0.000573287602
5.34167099,-1.62864417e-05
5.3500042,-0.00053638831
5.3583374,-0.00112668681
5.36667061,-0.000607419002
5.37500381,-1.96690544e-05
5.38333702,0.00049855496
5.39167023,0.00108691934
5.40000343,0.000565657916
5.40833664,-2.41482485e-05
5.41666985,-0.00054449396
5.42500305,-0.00113504869
5.43333626,-0.000616049219
5.44166946,-2.85807437e-05
5.45000267,0.000489348371
5.45833588,0.00107740401
5.46666908,0.000555819483
5.47500229,-3.43242718e-05
5.48333549,0.000486736448
5.4916687,0.00107791962
5.50000191,0.000559462875
5.50833511,-2.75479379e-05
5.51666832,-0.000545103569
5.52500153,-0.00113286928
5.53333473,-0.000611078169
5.54166794,-2.08105175e-05
5.55000114,0.000499929243
5.55833435,0.0010908111
5.56666756,0.000572072517
5.57500076,-1.52010962e-05
5.58333397,-0.000533001148
5.59166718,-0.00112099329
5.60000038,-0.000599410501
5.60833359,-9.33398405e-06
5.61666679,0.000511231832
5.625,0.00110195659
5.63333321,0.000583077781
5.64166641,-4.31950411e-06
5.64999962,-0.00052222691
5.65833282,-0.00111031008
5.66666603,-0.000588802155
5.67499924,1.21532412e-06
5.68333244,0.000521737966
5.69166565,0.00111243536
5.69999886,0.000593544799
5.70833206,6.15149565e-06
5.71666527,-0.000511736143
5.72499847,-0.00109978393
5.73333168,-0.000578225008
5.74166489,1.18592634e-05
5.74999809,0.000532464765
5.7583313,0.00112326094
5.76666451,0.000604485569
5.77499771,1.7223505e-05
5.78333092,-0.000500516326
5.79166412,-0.00108839944
5.79999733,-0.000566658797
5.80833054,2.36247106e-05
5.81666374,-0.000497312343
5.82499695,-0.00108838768
5.83333015,-0.000569839089
5.84166336,1.72482887e-05
5.84999657,0.000534865074
5.85832977,0.00112267665
5.86666298,0.000600915926
5.87499619,1.06636053e-05
5.88332939,-0.000510075944
5.8916626,-0.00110097276
5.8999958,-0.000582264271
5.90832901,4.96408848e-06
5.91666222,0.000522703456
5.92499542,0.00111061928
5.93332863,0.000588944997
5.94166183,-1.23878999e-06
5.94999504,-0.000521927781
5.95832825,-0.00111279183
5.96666145,-0.00059406861
5.97499466,-6.84313636e-06
5.98332787,0.00051087566
5.99166107,0.0010987533
5.99999428,0.000577022787
6.00832748,-1.32351206e-05
6.01666069,0.000507743156
6.0249939,0.00109887507
6.0333271,0.000580398832
6.04166031,-6.60022715e-06
6.04999352,-0.000524112722
6.05832672,-0.00111180416
6.06665993,-0.00058990682
6.07499313,4.98632289e-07
6.08332634,-0.00052035111
6.09165955,-0.00111137377
6.09999275,-0.000592806668
6.10832596,-5.73565785e-06
6.11665916,0.000511830323
6.12499237,0.00109955645
6.13332558,0.000577675586
6.14165878,-1.27316926e-05
6.14999199,0.00050809799
6.1583252,0.00109908218
6.1666584,0.000580458436
6.17499161,-6.68801431e-06
6.18332481,-0.000524348114
6.19165802,-0.00111218716
6.19999123,-0.000590438372
6.20832443,-1.82166332e-07
6.21665764,0.000520577072
6.22499084,0.00111150939
6.23332405,0.000592852593
6.24165726,5.69155236e-06
6.24999046,-0.00051196455
6.25832367,-0.00109978113
6.26665688,-0.000577990955
6.27499008,1.23252812e-05
6.28332329,-0.000508596015
6.29165649,-0.00109967205
6.2999897,-0.000581141328
6.30832291,5.91110484e-06
6.31665611,0.000523476047
6.32498932,0.00111121847
6.33332253,0.000589371542
6.34165573,-9.84322469e-07
6.34998894,-0.00052184501
6.35832214,-0.00111288065
6.36665535,-0.000594328856
6.37498856,-7.27526276e-06
6.38332176,0.000510270998
6.39165497,0.00109797518
6.39998817,0.000576070219
6.40832138,-1.4363819e-05
6.41665459,0.00050643651
6.42498779,0.0010973888
6.433321,0.000578730542
6.44165421,-8.45286377e-06
6.44998741,-0.000526152609
6.45832062,-0.00111403374
6.46665382,-0.000592329947
6.47498703,-2.12147916e-06
6.48332024,0.000518587185
6.49165344,0.00110946596
6.49998665,0.000590752112
6.50831985,3.53124506e-06
6.51665306,-0.000514187966
6.52498627,-0.00110207091
6.53331947,-0.000580350519
6.54165268,9.89218279e-06
6.54998589,0.000530652993
