Time,Theta
0.0083333333333333332,-0.52394150058774258
0.016666666666666666,-0.52457581652611707
0.025000000000000001,-0.52500412789675732
0.033333333333333333,-0.52522724783747421
0.041666666666666664,-0.52524561114085022
0.049999999999999996,-0.52505927512873785
0.058333333333333327,-0.52466791980535754
0.066666666666666666,-0.52407084728934661
0.074999999999999997,-0.52326698052394482
0.083333333333333329,-0.52225486126334519
0.09166666666666666,-0.52103264733209875
0.099999999999999992,-0.51959810915333815
0.10833333333333332,-0.51794862554049903
0.11666666666666665,-0.51608117874617643
0.12499999999999999,-0.51399234876075783
0.13333333333333333,-0.51167830685255522
0.14166666666666666,-0.50913480834031866
0.14999999999999999,-0.50635718458827095
0.15833333333333333,-0.50334033421319846
0.16666666666666666,-0.50007871349265354
0.17499999999999999,-0.49656632596304789
0.18333333333333332,-0.49279671119632823
0.19166666666666665,-0.48876293274411309
0.19999999999999998,-0.48445756523863936
0.20833333333333331,-0.47987268064070704
0.21666666666666665,-0.47499983362606346
0.22499999999999998,-0.46983004610342516
0.23333333333333331,-0.46435379085967488
0.24166666666666664,-0.45856097433079845
0.24999999999999997,-0.45244091850096463
0.2583333333333333,-0.44598234193692976
0.26666666666666666,-0.43917333997083463
0.27500000000000002,-0.43200136405162715
0.28333333333333338,-0.42445320029400407
0.29166666666666674,-0.41651494726416188
0.3000000000000001,-0.40817199305403107
0.30833333333333346,-0.39940899171037325
0.31666666666666682,-0.3911566639009183
0.32500000000000018,-0.38352817111480059
0.33333333333333354,-0.37543530925465374
0.3416666666666669,-0.36686324838358136
0.35000000000000026,-0.35875763101308994
0.35833333333333361,-0.35123371172911905
0.36666666666666697,-0.34318721260717344
0.37500000000000033,-0.33460347236267401
0.38333333333333369,-0.32644152118908443
0.39166666666666705,-0.31881824959695121
0.40000000000000041,-0.31061428853513479
0.40833333333333377,-0.30181480592060411
0.41666666666666713,-0.2933909760725476
0.42500000000000049,-0.28546089913518891
0.43333333333333385,-0.27689079228316799
0.44166666666666721,-0.26866094747959191
0.45000000000000057,-0.26089091074933224
0.45833333333333393,-0.252437661176172
0.46666666666666728,-0.24428958822933258
0.47500000000000064,-0.23656740897745027
0.483333333333334,-0.22811960499929268
0.49166666666666736,-0.21994176783470881
0.50000000000000067,-0.21215552723592884
0.50833333333333397,-0.20461609638785067
0.51666666666666727,-0.19744669503112261
0.52500000000000058,-0.18948443012730892
0.53333333333333388,-0.18173573197651161
0.54166666666666718,-0.1743242656466929
0.55000000000000049,-0.16710410309549056
0.55833333333333379,-0.16020021516014668
0.5666666666666671,-0.15244050614621701
0.5750000000000004,-0.14483971986930286
0.5833333333333337,-0.13752286589869253
0.59166666666666701,-0.13034283134898789
0.60000000000000031,-0.12342567422096004
0.60833333333333361,-0.11662438204311935
0.61666666666666692,-0.11006594218910065
0.62500000000000022,-0.10256893020906899
0.63333333333333353,-0.095156674287578527
0.64166666666666683,-0.087955670884689807
0.65000000000000013,-0.080817597659106372
0.65833333333333344,-0.073869654600404788
0.66666666666666674,-0.066963568875031187
0.67500000000000004,-0.060227136837823832
0.68333333333333335,-0.05351212904430043
0.69166666666666665,-0.046946837842070238
0.69999999999999996,-0.040383065640540353
0.70833333333333326,-0.033949506193058254
0.71666666666666656,-0.027497977784536477
0.72499999999999987,-0.021157485823172142
0.73333333333333317,-0.014779844872467723
0.74166666666666647,-0.0084942861845815221
0.74999999999999978,-0.0021525980914882969
0.75833333333333308,0.0041158450291620807
0.76666666666666639,0.010459305887514151
0.77499999999999969,0.016748347410491422
0.78333333333333299,0.023131309916567082
0.7916666666666663,0.028437409137627632
0.7999999999999996,0.033716082033730499
0.8083333333333329,0.039114157286189603
0.81666666666666621,0.044500758681558526
0.82499999999999951,0.050022853190010354
0.83333333333333282,0.05554976340275742
0.84166666666666612,0.061228623300535655
0.84999999999999942,0.066929017552301004
0.85833333333333273,0.072798275748210156
0.86666666666666603,0.077668028391241845
0.87499999999999933,0.082584032893521342
0.88333333333333264,0.087692267104027624
0.89166666666666594,0.092861670717376082
0.89999999999999925,0.098238498322048604
0.90833333333333255,0.10265663069191944
0.91666666666666585,0.10715840946190983
0.92499999999999916,0.1118888479996312
0.93333333333333246,0.11671661709913923
0.94166666666666576,0.12178708955548091
0.94999999999999907,0.12593725628424271
0.95833333333333237,0.13020580258618503
0.96666666666666567,0.13473697378156535
0.97499999999999898,0.13836927905805527
0.98333333333333228,0.14213856644670536
0.99166666666666559,0.14618804246700867
0.99999999999999889,0.1503859921360288
1.0083333333333322,0.15487611957293709
1.0166666666666655,0.15850088531706316
1.0249999999999988,0.16229247386093273
1.0333333333333321,0.16639365260231051
1.0416666666666654,0.1696488862630923
1.0499999999999987,0.17308751907022477
1.058333333333332,0.17685146889933318
1.0666666666666653,0.17978720512161356
1.0749999999999986,0.1829213803615844
1.0833333333333319,0.18639514593656711
1.0916666666666652,0.18905695937356873
1.0999999999999985,0.19193093014536097
1.1083333333333318,0.19515752108899745
1.1166666666666651,0.19758715388132991
1.1249999999999984,0.20024153682961221
1.1333333333333317,0.20326051719114893
1.1416666666666651,0.20549645663557112
1.1499999999999984,0.2079687932510316
1.1583333333333317,0.21081682639370289
1.166666666666665,0.21289483922384123
1.1749999999999983,0.21522011614778405
1.1833333333333316,0.217931471198759
1.1916666666666649,0.21988510085665811
1.1999999999999982,0.22209623544328394
1.2083333333333315,0.22470326137438709
1.2166666666666648,0.22656429449949736
1.2249999999999981,0.22869259173094744
1.2333333333333314,0.23122616498994283
1.2416666666666647,0.23302507315033272
1.249999999999998,0.23510065980222994
1.2583333333333313,0.23759061123290501
1.2666666666666646,0.23935697371066042
1.2749999999999979,0.24140921546338912
1.2833333333333312,0.24388474206841346
1.2916666666666645,0.24564765531140223
1.2999999999999978,0.24670117057431265
1.3083333333333311,0.2480513893539035
1.3166666666666644,0.24983431141674028
1.3249999999999977,0.25091515152191046
1.333333333333331,0.25229878243173065
1.3416666666666643,0.25412108638344855
1.3499999999999976,0.25524880780213483
1.358333333333331,0.25568403814943708
1.3666666666666643,0.25642909717461804
1.3749999999999976,0.25761865606589129
1.3833333333333309,0.25811987165148631
1.3916666666666642,0.25893441478766621
1.3999999999999975,0.26019696540423115
1.4083333333333308,0.26077568820852237
1.4166666666666641,0.26167154827851835
1.4249999999999974,0.26301924284442385
1.4333333333333307,0.2636880559000041
1.441666666666664,0.26367926148802051
1.4499999999999973,0.26399191139454858
1.4583333333333306,0.26475965266217022
1.4666666666666639,0.26485165867000593
1.4749999999999972,0.26526677529977249
1.4833333333333305,0.26613876215572052
1.4916666666666638,0.2663374266869965
1.4999999999999971,0.2658632001225128
1.5083333333333304,0.26571364832691802
1.5166666666666637,0.26602159024522082
1.524999999999997,0.26565607340049185
1.5333333333333303,0.26561491370252932
1.5416666666666636,0.26603111123003076
1.5499999999999969,0.2657738545938747
1.5583333333333302,0.26484275705753169
1.5666666666666635,0.26423494271746256
1.5749999999999968,0.26408254628243899
1.5833333333333302,0.26325332410383562
1.5916666666666635,0.26274508145208908
1.5999999999999968,0.2626901792308951
1.6083333333333301,0.26195599389360535
1.6166666666666634,0.26154090452808454
1.6249999999999967,0.26157747527179465
1.63333333333333,0.26093279833485283
1.6416666666666633,0.25960579462436634
1.6499999999999966,0.25859458897535903
1.6583333333333299,0.25803089769715221
1.6666666666666632,0.25677977810729857
1.6749999999999965,0.25584037010766641
1.6833333333333298,0.25534462245071493
1.6916666666666631,0.2541567289512815
1.6999999999999964,0.25327675127466409
1.7083333333333297,0.25283684140400958
1.716666666666663,0.25170038613816947
1.7249999999999963,0.24986543395660243
1.7333333333333296,0.24833227505741359
1.7416666666666629,0.24723219931148421
1.7499999999999962,0.24542580727133781
1.7583333333333295,0.24391477817494372
1.7666666666666628,0.24283061596673544
1.7749999999999961,0.2410324483977167
1.7833333333333294,0.23952327326165407
1.7916666666666627,0.23843477159960563
1.799999999999996,0.23662459951596357
1.8083333333333294,0.23509702136352281
1.8166666666666627,0.23398386076804806
1.824999999999996,0.23214128317361304
1.8333333333333293,0.23057478434890302
1.8416666666666626,0.22941629786873119
1.8499999999999959,0.22752046015111377
1.8583333333333292,0.22589397864833216
1.8666666666666625,0.22466886555651688
1.8749999999999958,0.22269817117629767
1.8833333333333291,0.22098980899787174
1.8916666666666624,0.21967583925757422
1.8999999999999957,0.21760765083278596
1.908333333333329,0.21579437041043095
1.9166666666666623,0.21436807586452156
1.9249999999999956,0.21217840160675489
1.9333333333333289,0.21023570615928097
1.9416666666666622,0.20867205422060164
1.9499999999999955,0.20633521549808731
1.9583333333333288,0.20423680900180505
1.9666666666666621,0.20250885440484159
1.9749999999999954,0.19999712999362387
1.9833333333333287,0.19771455220983136
1.991666666666662,0.19579306213457073
1.9999999999999953,0.19307630447857088
2.0083333333333289,0.1905785362259956
2.0166666666666622,0.18843158383003969
2.0249999999999955,0.18649673729836075
2.0333333333333288,0.18490686190734684
2.0416666666666621,0.18250314288406952
2.0499999999999954,0.18030281430663117
2.0583333333333287,0.17843850480443782
2.066666666666662,0.17574937544370881
2.0749999999999953,0.17325368974406252
2.0833333333333286,0.17108381224923372
2.0916666666666619,0.16910043999911215
2.0999999999999952,0.16743688282161326
2.1083333333333285,0.16492989889541992
2.1166666666666618,0.16260034307694252
2.1249999999999951,0.16058115274146406
2.1333333333333284,0.15770701138726656
2.1416666666666617,0.15499962315619481
2.149999999999995,0.15259152728986475
2.1583333333333283,0.15034255974101113
2.1666666666666616,0.14838611670540419
2.1749999999999949,0.14555430700739228
2.1833333333333282,0.14287120682120791
2.1916666666666615,0.14046970843767129
2.1999999999999948,0.1382093258660704
2.2083333333333282,0.13622374027106676
2.2166666666666615,0.13334257025997592
2.2249999999999948,0.13059194610478572
2.2333333333333281,0.12810494765088126
2.2416666666666614,0.12574066138192705
2.2499999999999947,0.12363289115108574
2.258333333333328,0.12164113233370979
2.2666666666666613,0.11989986942021923
2.2749999999999946,0.11723610211587067
2.2833333333333279,0.11467884992205139
2.2916666666666612,0.112361846843323
2.2999999999999945,0.11014405178705586
2.3083333333333278,0.1081598267456426
2.3166666666666611,0.10626850137476658
2.3249999999999944,0.10460502788666534
2.3333333333333277,0.10199407988898865
2.341666666666661,0.099466870101386079
2.3499999999999943,0.097157474163200752
2.3583333333333276,0.094924556108820266
2.3666666666666609,0.092902734834212769
2.3749999999999942,0.090950998014184228
2.3833333333333275,0.089204473072642038
2.3916666666666608,0.086485592280983029
2.3999999999999941,0.083827249673069454
2.4083333333333274,0.081363580289604873
2.4166666666666607,0.078952755234561675
2.424999999999994,0.076729370988158546
2.4333333333333274,0.074551865478449802
2.4416666666666607,0.072555262596166278
2.449999999999994,0.070598260776660704
2.4583333333333273,0.068816281064302307
2.4666666666666606,0.067068276075640185
2.4749999999999939,0.065490037183172367
2.4833333333333272,0.062901626866222263
2.4916666666666605,0.060338395432871346
2.4999999999999938,0.057934952225231012
2.5083333333333271,0.055549221482472537
2.5166666666666604,0.053316142474809633
2.5249999999999937,0.051093830898025043
2.533333333333327,0.049017525952288428
2.5416666666666603,0.046945523831796385
2.5499999999999936,0.045013336346992318
2.5583333333333269,0.043079429244082604
2.5666666666666602,0.041279562023096655
2.5749999999999935,0.039472359143017374
2.5833333333333268,0.037793805020995427
2.5916666666666601,0.036102672168351967
2.5999999999999934,0.034535149069958103
2.6083333333333267,0.032950145859875858
2.61666666666666,0.031484035962005621
2.6249999999999933,0.029995856970343994
2.6333333333333266,0.028622149657748262
2.6416666666666599,0.026180799033978824
2.6499999999999932,0.023709512172096145
2.6583333333333266,0.021343371634287678
2.6666666666666599,0.018940028503370742
2.6749999999999932,0.016634695748594039
2.6833333333333265,0.014285089239386277
2.6916666666666598,0.012026526179025301
2.6999999999999931,0.0097167712054276722
2.7083333333333264,0.0074912205995932707
2.7166666666666597,0.0052076716255241694
2.724999999999993,0.0030015752819343117
2.7333333333333263,0.00073074518359760997
2.7416666666666596,-0.00042757772455882641
2.7499999999999929,-0.0015169914734016149
2.7583333333333262,-0.0026780189000794479
2.7666666666666595,-0.0037735092331638203
2.7749999999999928,-0.0049439953970961915
2.7833333333333261,-0.0060523395419617345
2.7916666666666594,-0.0072390940210393939
2.7999999999999927,-0.0083671448742730532
2.808333333333326,-0.0095770733475328863
2.8166666666666593,-0.010731800474772964
2.8249999999999926,-0.011971946021763496
2.8333333333333259,-0.013160477335688108
2.8416666666666592,-0.014438062535107515
2.8499999999999925,-0.015667726895299855
2.8583333333333258,-0.01699019696862638
2.8666666666666591,-0.018268567951602855
2.8749999999999925,-0.019643635202378901
2.8833333333333258,-0.02097857629556445
2.8916666666666591,-0.022414266101014369
2.8999999999999924,-0.023813977581005653
2.9083333333333257,-0.025318676199708647
2.916666666666659,-0.026791743962716122
2.9249999999999923,-0.028374248430043846
2.9333333333333256,-0.02992969505085899
2.9416666666666589,-0.03159926544271751
2.9499999999999922,-0.033246603747792002
2.9583333333333255,-0.035013018102740621
2.9666666666666588,-0.035721332832923607
2.9749999999999921,-0.03641370843084249
2.9833333333333254,-0.037229978698071334
2.9916666666666587,-0.038032560565429835
2.999999999999992,-0.038961447174413626
3.0083333333333253,-0.039879229504636168
3.0166666666666586,-0.040926066139072299
3.0249999999999919,-0.041964731308737659
3.0333333333333252,-0.043135555989546895
3.0416666666666585,-0.044301508067196869
3.0499999999999918,-0.045603098721951792
3.0583333333333251,-0.046903501180720654
3.0666666666666584,-0.048343415509690527
3.0749999999999917,-0.048745953110184176
3.083333333333325,-0.049152124781686075
3.0916666666666583,-0.049701238306164706
3.0999999999999917,-0.050255401425357803
3.108333333333325,-0.050954140959569863
3.1166666666666583,-0.05165979120858178
3.1249999999999916,-0.05251210097489889
3.1333333333333249,-0.053373639063026092
3.1416666666666582,-0.054384380421948361
3.1499999999999915,-0.055407137769222119
3.1583333333333248,-0.056582117562066575
3.1666666666666581,-0.057772387390562868
3.1749999999999914,-0.059118391758664436
3.1833333333333247,-0.0594439104793568
3.191666666666658,-0.059789117144011174
3.1999999999999913,-0.06029313065721454
3.2083333333333246,-0.060818083529063087
3.2166666666666579,-0.061503362759264282
3.2249999999999912,-0.062211373070297532
3.2333333333333245,-0.063081771118713104
3.2416666666666578,-0.063977242637240639
3.2499999999999911,-0.065037717000739736
3.2583333333333244,-0.065087069159389901
3.2666666666666577,-0.065164604203675314
3.274999999999991,-0.065408970518189974
3.2833333333333243,-0.065681978490202519
3.2916666666666576,-0.066122574206834761
3.2999999999999909,-0.066592856815974724
3.3083333333333242,-0.067232068700629866
3.3166666666666575,-0.067902605100594843
3.3249999999999909,-0.068744005039400161
3.3333333333333242,-0.06858017049489043
3.3416666666666575,-0.068449781277393165
3.3499999999999908,-0.068491125905197819
3.3583333333333241,-0.068565757589274745
3.3666666666666574,-0.068812282138940903
3.3749999999999907,-0.069092549773464559
3.383333333333324,-0.069545479866981286
3.3916666666666573,-0.070033225823400339
3.3999999999999906,-0.070695018791936654
3.4083333333333239,-0.071393323202401729
3.4166666666666572,-0.072267682030772135
3.4249999999999905,-0.072142393521020948
3.4333333333333238,-0.072055885243493892
3.4416666666666571,-0.072146471119903549
3.4499999999999904,-0.072275816812831933
3.4583333333333237,-0.072582569583699866
3.466666666666657,-0.072928708461406547
3.4749999999999903,-0.073453210340065453
3.4833333333333236,-0.072979984955727939
3.4916666666666569,-0.072546836581210028
3.4999999999999902,-0.072291533398538013
3.5083333333333235,-0.072075249634853997
3.5166666666666568,-0.072036096956100054
3.5249999999999901,-0.072035554693965317
3.5333333333333234,-0.072212070830781877
3.5416666666666567,-0.072427434349466718
3.5499999999999901,-0.072820424583747073
3.5583333333333234,-0.072214694686498729
3.5666666666666567,-0.071647910032224149
3.57499999999999,-0.071257641939851707
3.5833333333333233,-0.070904859564719702
3.5916666666666566,-0.070727476417875898
3.5999999999999899,-0.070586759047249079
3.6083333333333232,-0.070620954738843889
3.6166666666666565,-0.070691630832487126
3.6249999999999898,-0.07093736221350512
3.6333333333333231,-0.071220021878614745
3.6416666666666564,-0.071678508250851536
3.6499999999999897,-0.071136453932572813
3.658333333333323,-0.070631721301445419
3.6666666666666563,-0.070301990768833172
3.6749999999999896,-0.070008306339233342
3.6833333333333229,-0.069888684278004667
3.6916666666666562,-0.069804463742466863
3.6999999999999895,-0.069893989182225044
3.7083333333333228,-0.070018898584582212
3.7166666666666561,-0.070317859093606577
3.7249999999999894,-0.069614134908667982
3.7333333333333227,-0.068945468687083206
3.741666666666656,-0.068449306329674456
3.7499999999999893,-0.067986432041730799
3.7583333333333226,-0.0676946230319838
3.7666666666666559,-0.067434946929229134
3.7749999999999893,-0.067345503090436423
3.7833333333333226,-0.067287644747949946
3.7916666666666559,-0.067399786452772989
3.7999999999999892,-0.066504636936620926
3.8083333333333225,-0.065639904379552139
3.8166666666666558,-0.064942769236977435
3.8249999999999891,-0.0642736872124169
3.8333333333333224,-0.063770158094983098
3.8416666666666557,-0.063292901962002518
3.849999999999989,-0.062979727080931844
3.8583333333333223,-0.06269161810446848
3.8666666666666556,-0.062566683109465351
3.8749999999999889,-0.062466172702402421
3.8833333333333222,-0.062528488156668921
3.8916666666666555,-0.061575819486564778
3.8999999999999888,-0.060646182399562619
3.9083333333333221,-0.059876712964321031
3.9166666666666554,-0.05912770687420657
3.9249999999999887,-0.058536596138047209
3.933333333333322,-0.057963919094061435
3.9416666666666553,-0.057547392647619489
3.9499999999999886,-0.05714779668142541
3.9583333333333219,-0.056903123998406267
3.9666666666666552,-0.056674395980538257
3.9749999999999885,-0.05659987425104554
3.9833333333333218,-0.056540822777722911
3.9916666666666551,-0.056635766742185283
3.9999999999999885,-0.055706449275468729
4.0083333333333222,-0.054791356744173091
4.0166666666666559,-0.054027708609586486
4.0249999999999897,-0.05327574927495516
4.0333333333333234,-0.05267296486160835
4.0416666666666572,-0.052079819425671671
4.0499999999999909,-0.051634055388806326
4.0583333333333247,-0.051196354531448059
4.0666666666666584,-0.050904707054452193
4.0749999999999922,-0.050620011497882707
4.0833333333333259,-0.050480499050167681
4.0916666666666597,-0.050347285068970155
4.0999999999999934,-0.050358836574291181
4.1083333333333272,-0.049336301076129886
4.1166666666666609,-0.048318442942101178
4.1249999999999947,-0.04744238414978498
4.1333333333333284,-0.046568145654383226
4.1416666666666622,-0.045833085802715959
4.1499999999999959,-0.045097416650660534
