Time,Theta
0.00833333377,0.0582185052
0.0166666675,0.0578267016
0.0250000022,0.057452254
0.0333333351,0.0572331697
0.0416666679,0.0570305288
0.0500000007,0.0569826216
0.0583333336,0.0559110045
0.0666666701,0.0548539422
0.075000003,0.0539484248
0.0833333358,0.0530544929
0.0916666687,0.0523094013
0.100000001,0.051573433
0.108333334,0.0509840921
0.116666667,0.0504018553
0.125,0.0499645025
0.13333334,0.0495327041
0.141666681,0.0492444821
0.150000021,0.0489607193
0.158333361,0.0488196611
0.166666701,0.0476421304
0.175000042,0.0464667417
0.183333382,0.0454304032
0.191666722,0.0443928763
0.200000063,0.0434913002
0.208333403,0.0425856262
0.216666743,0.0418131724
0.225000083,0.0410340875
0.233333424,0.0403859243
0.241666764,0.0397289619
0.250000089,0.0392009541
0.258333415,0.0386623628
0.26666674,0.038251128
0.275000066,0.0378278606
0.283333391,0.0375307016
0.291666716,0.0372204222
0.300000042,0.0370353274
0.308333367,0.0357954428
0.316666692,0.0345399454
0.325000018,0.0334056914
0.333333343,0.0322522148
0.341666669,0.0312165692
0.349999994,0.0301584043
0.358333319,0.0292149223
0.366666645,0.0282459147
0.37499997,0.0273887236
0.383333296,0.0265032593
0.391666621,0.0257269982
0.399999946,0.0249199606
0.408333272,0.0242197495
0.416666597,0.0234864987
0.424999923,0.0228579249
0.433333248,0.0221942514
0.441666573,0.0216333177
0.449999899,0.0210354421
0.458333224,0.0205385722
0.466666549,0.0200031158
0.474999875,0.0195671078
0.4833332,0.0190910473
0.491666526,0.0187130664
0.499999851,0.0182937458
0.508333206,0.0179713089
0.516666532,0.0176064093
0.524999857,0.0173373595
0.533333182,0.017024897
0.541666508,0.0168074071
0.549999833,0.0165457036
0.558333158,0.0163782518
0.566666484,0.0161659364
0.574999809,0.0160473045
0.583333135,0.0158833023
0.59166646,0.0158125516
0.599999785,0.0146544734
0.608333111,0.0134490402
0.616666436,0.0123333056
0.624999762,0.0111667318
0.633333087,0.010086433
0.641666412,0.00895192102
0.649999738,0.00790036749
0.658333063,0.0067913197
0.666666389,0.00576199032
0.674999714,0.00467195595
0.683333039,0.00365846488
0.691666365,0.00258111279
0.69999969,0.0015771708
0.708333015,0.000506245939
0.716666341,-0.000494378677
0.724999666,-0.00156509224
0.733332992,-0.00256860955
0.741666317,-0.00364532438
0.749999642,-0.00361620961
0.758332968,-0.00352307782
0.766666293,-0.00350467605
0.774999619,-0.00342208892
0.783332944,-0.00341407978
0.791666269,-0.00334174815
0.799999595,-0.00334387319
0.80833292,-0.00328156957
0.816666245,-0.0032936323
0.824999571,-0.00324118976
0.833332896,-0.00326305139
0.841666222,-0.00322036142
0.849999547,-0.00325194397
0.858332872,-0.00321895722
0.866666198,-0.00326023973
0.874999523,-0.00323696434
0.883332849,-0.00328798406
0.891666174,-0.00327448733
0.899999499,-0.00333534065
0.908332825,-0.00333174737
0.91666615,-0.00340258912
0.924999475,-0.00340908347
0.933332801,-0.00349012786
0.941666126,-0.00350695546
0.949999452,-0.00359847979
0.958332777,-0.00362594845
0.966666102,-0.00372829125
0.974999428,-0.0037667721
0.983332753,-0.00388033642
0.991666079,-0.00393026555
0.999999404,-0.00405552238
1.00833273,-0.00411740597
1.01666605,-0.00425489619
1.02499938,-0.00432931073
1.03333271,-0.00447964901
1.04166603,-0.00456724735
1.04999936,-0.00473112427
1.05833268,-0.00483263656
1.06666601,-0.00501082325
1.07499933,-0.00512706442
1.08333266,-0.00532042049
1.09166598,-0.00545229297
1.09999931,-0.00566176698
1.10833263,-0.00581026776
1.11666596,-0.00603690511
1.12499928,-0.00620312989
1.13333261,-0.00644807657
1.14166594,-0.00663322723
1.14999926,-0.00689774239
1.15833259,-0.00710313302
1.16666591,-0.00738859084
1.17499924,-0.00761565706
1.18333256,-0.00792355835
1.19166589,-0.00817386806
1.19999921,-0.00850584637
1.20833254,-0.00878110249
1.21666586,-0.00913893431
1.22499919,-0.00944099389
1.23333251,-0.00982661545
1.24166584,-0.0101574901
1.24999917,-0.0105729969
1.25833249,-0.0109348753
1.26666582,-0.0113825481
1.27499914,-0.0117778033
1.28333247,-0.012260112
1.29166579,-0.0126913143
1.29999912,-0.0132109392
1.30833244,-0.01368088
1.31666577,-0.0142407194
1.32499909,-0.014752415
1.33333242,-0.0153556094
1.34166574,-0.0159123261
1.34999907,-0.0165622756
1.3583324,-0.017167557
1.36666572,-0.0178679451
1.37499905,-0.0185256135
1.38333237,-0.0192804188
1.3916657,-0.0189530961
1.39999902,-0.0185847841
1.40833235,-0.0183137897
1.41666567,-0.018000843
1.424999,-0.0177843347
1.43333232,-0.017525075
1.44166565,-0.0173615329
1.44999897,-0.0171546005
1.4583323,-0.0170428306
1.46666563,-0.016887188
1.47499895,-0.0168263
1.48333228,-0.0167212058
1.4916656,-0.0167106222
1.49999893,-0.01665565
1.50833225,-0.0166950691
1.51666558,-0.0166900847
1.5249989,-0.0167795513
1.53333223,-0.0168247297
1.54166555,-0.0169645492
1.54999888,-0.0170603544
1.5583322,-0.0172511525
1.56666553,-0.0173983611
1.57499886,-0.0176410638
1.58333218,-0.017840758
1.59166551,-0.0181365982
1.59999883,-0.0183901638
1.60833216,-0.0187407024
1.61666548,-0.0190498717
1.62499881,-0.0194569863
1.63333213,-0.0198238008
1.64166546,-0.0202897172
1.64999878,-0.020716574
1.65833211,-0.0212438647
1.66666543,-0.0217335261
1.67499876,-0.0223251395
1.68333209,-0.0218392834
1.69166541,-0.0213167891
1.69999874,-0.0208957102
1.70833206,-0.02043657
1.71666539,-0.0200775228
1.72499871,-0.0196791776
1.73333204,-0.0193797909
1.74166536,-0.0190400556
1.74999869,-0.0187983084
1.75833201,-0.018515341
1.76666534,-0.0183295757
1.77499866,-0.0181018729
1.78333199,-0.017970752
1.79166532,-0.0177971534
1.79999864,-0.0177196693
1.80833197,-0.0175993275
1.81666529,-0.017574802
1.82499862,-0.0175071917
1.83333194,-0.0175352581
1.84166527,-0.0175201762
1.84999859,-0.0176007859
1.85833192,-0.0176383387
1.86666524,-0.0177717581
1.87499857,-0.0178623684
1.88333189,-0.0180491712
1.89166522,-0.0181935821
1.89999855,-0.0184346791
1.90833187,-0.0186339561
1.9166652,-0.0189305693
1.92499852,-0.0191861
1.93333185,-0.0195397921
1.94166517,-0.0198533088
1.9499985,-0.0202659816
1.95833182,-0.0206395611
1.96666515,-0.0211134702
1.97499847,-0.0215495508
1.9833318,-0.0220873132
1.99166512,-0.0215472523
1.99999845,-0.020970121
2.00833178,-0.0204938892
2.01666522,-0.019979002
2.02499866,-0.0195635241
2.03333211,-0.0191079862
2.04166555,-0.018750554
2.049999,-0.0183518343
2.05833244,-0.0180500783
2.06666589,-0.0177059863
2.07499933,-0.0174578931
2.08333278,-0.0171665568
2.09166622,-0.0169704091
2.09999967,-0.0167302843
2.10833311,-0.0165846851
2.11666656,-0.0163945314
2.125,-0.0162983947
2.13333344,-0.0161572695
2.14166689,-0.0161098056
2.15000033,-0.0160170682
2.15833378,-0.0160177741
2.16666722,-0.0159730613
2.17500067,-0.0160217229
2.18333411,-0.0160249621
2.19166756,-0.0161216501
2.200001,-0.0161730628
2.20833445,-0.0163181443
2.21666789,-0.0164182391
2.22500134,-0.0166123696
2.23333478,-0.0167619437
2.24166822,-0.0170060638
2.25000167,-0.0172062162
2.25833511,-0.0175015703
2.26666856,-0.0177536998
2.275002,-0.0181018468
2.28333545,-0.0184076633
2.29166889,-0.0188104678
2.30000234,-0.0181304645
2.30833578,-0.0174082741
2.31666923,-0.0167816654
2.32500267,-0.0161108449
2.33333611,-0.0155336643
2.34166956,-0.0149103887
2.350003,-0.0143789481
2.35833645,-0.0137996804
2.36666989,-0.0133105814
2.37500334,-0.012772046
2.38333678,-0.012322139
2.39167023,-0.0118213128
2.40000367,-0.0114076836
2.40833712,-0.0109417597
2.41667056,-0.0105617149
2.42500401,-0.0101281004
2.43333745,-0.00977914222
2.44167089,-0.00937544182
2.45000434,-0.00905526709
2.45833778,-0.00867925864
2.46667123,-0.0083857337
2.47500467,-0.00803536735
2.48333812,-0.00776651595
2.49167156,-0.00743989367
2.50000501,-0.00719389133
2.50833845,-0.00688925805
2.5166719,-0.00666441815
2.52500534,-0.00638015056
2.53333879,-0.00617491174
2.54167223,-0.00590950856
2.55000567,-0.00572242821
2.55833912,-0.00547450269
2.56667256,-0.00530424761
2.57500601,-0.00507251825
2.58333945,-0.00491785491
2.5916729,-0.00470113708
2.60000634,-0.00456092693
2.60833979,-0.00435812585
2.61667323,-0.00423131697
2.62500668,-0.00404142309
2.63334012,-0.0039270455
2.64167356,-0.00374912424
2.65000701,-0.00364628015
2.65834045,-0.0034794712
2.6666739,-0.00338733406
2.67500734,-0.00323084183
2.68334079,-0.00314864842
2.69167423,-0.00300174137
2.70000768,-0.00292878877
2.70834112,-0.00279079215
2.71667457,-0.00272643263
2.72500801,-0.00259672524
2.73334146,-0.00254036346
2.7416749,-0.00241837394
2.75000834,-0.00236946181
2.75834179,-0.0022546649
2.76667523,-0.00221269927
2.77500868,-0.00210461323
2.78334212,-0.00206913357
2.79167557,-0.00196731836
2.80000901,-0.00193790242
2.80834246,-0.00184195291
2.8166759,-0.00181821454
2.82500935,-0.00172776286
2.83334279,-0.00170935085
2.84167624,-0.00162406149
2.85000968,-0.0016106558
2.85834312,-0.00153022434
2.86667657,-0.00152153568
2.87501001,-0.00144568703
2.88334346,-0.00144145405
2.8916769,-0.0013699407
2.90001035,-0.00136992906
2.90834379,-0.00130252948
2.91667724,-0.00130653032
2.92501068,-0.00124304777
2.93334413,-0.00125087588
2.94167757,-0.00119113701
2.95001101,-0.00120263058
2.95834446,-0.0011464844
2.9666779,-0.00116150337
2.97501135,-0.00110882067
2.98334479,-0.00112724619
2.99167824,-0.00107791834
3.00001168,-0.00109965261
3.00834513,-0.00105359172
3.01667857,-0.00107855559
3.02501202,-0.00103569229
3.03334546,-0.00106382719
3.04167891,-0.0010241128
3.05001235,-0.00105537835
3.05834579,-0.00101878168
3.06667924,-0.00105315691
3.07501268,-0.0010196662
3.08334613,-0.00105714845
3.09167957,-0.00102677045
3.10001302,-0.00106737576
3.10834646,-0.00104013563
3.11667991,-0.00108389882
3.12501335,-0.00105984148
3.1333468,-0.00110681611
3.14168024,-0.00108600408
3.15001369,-0.00113626325
3.15834713,-0.0011187793
3.16668057,-0.00117241556
3.17501402,-0.00115836307
3.18334746,-0.00121548935
3.19168091,-0.00120499101
3.20001435,-0.00126574107
3.2083478,-0.00125894172
3.21668124,-0.00132347131
3.22501469,-0.00132053741
3.23334813,-0.00138902478
3.24168158,-0.00139014667
3.25001502,-0.00146279309
3.25834846,-0.00146818464
3.26668191,-0.00154521747
3.27501535,-0.00155511801
3.2833488,-0.00163679011
3.29168224,-0.00165146659
3.30001569,-0.00173805864
3.30834913,-0.00175780687
3.31668258,-0.00184962922
3.32501602,-0.00187477423
3.33334947,-0.00197216845
3.34168291,-0.0020030688
3.35001636,-0.00210641022
3.3583498,-0.00214345753
3.36668324,-0.00225315569
3.37501669,-0.00229677954
3.38335013,-0.00241328357
3.39168358,-0.00246395264
3.40001702,-0.00258775172
3.40835047,-0.00264597731
3.41668391,-0.00277760462
3.42501736,-0.00284394249
3.4333508,-0.00298397802
3.44168425,-0.00305903237
3.45001769,-0.00320810592
3.45835114,-0.00329253357
3.46668458,-0.00345132942
3.47501802,-0.0035458433
3.48335147,-0.00371510442
3.49168491,-0.00382047775
3.50001836,-0.00400100788
3.5083518,-0.00411807839
3.51668525,-0.0043107518
3.52501869,-0.00444042776
3.53335214,-0.00464618951
3.54168558,-0.00478945533
3.55001903,-0.00500932755
3.55835247,-0.00516724773
3.56668591,-0.00540233962
3.57501936,-0.00557606574
3.5833528,-0.00582757639
3.59168625,-0.00601835828
3.60001969,-0.00628758315
3.60835314,-0.00649676705
3.61668658,-0.00678510917
3.62502003,-0.00701415492
3.63335347,-0.00732313376
3.64168692,-0.00757361948
3.65002036,-0.00790487416
3.65835381,-0.00817850884
3.66668725,-0.00853381678
3.67502069,-0.00883244257
3.68335414,-0.00921371672
3.69168758,-0.00849762186
3.70002103,-0.00772489375
3.70835447,-0.00703325542
3.71668792,-0.00628278637
3.72502136,-0.00561124319
3.73335481,-0.00487873517
3.74168825,-0.00422304869
3.7500217,-0.00350431353
3.75835514,-0.00286033866
3.76668859,-0.00215127086
3.77502203,-0.00151493505
3.78335547,-0.000811488542
3.79168892,-0.000178765491
3.80002236,0.00052307162
3.80835581,0.00115618564
3.81668925,0.00186041486
3.8250227,0.00145616813
3.83335614,0.000984700862
3.84168959,0.000584194786
3.85002303,0.000115160758
3.85835648,0.000757543836
3.86668992,0.00147044414
3.87502337,0.00107428222
3.88335681,0.000610326475
3.89169025,0.000216770248
3.9000237,-0.000245865551
3.90835714,0.000402374222
3.91669059,0.00112059794
3.92502403,0.0007292339
3.93335748,0.000269558514
3.94169092,-0.000120228433
3.95002437,-0.000579600513
3.95835781,7.14020643e-05
3.96669126,0.00079189206
3.9750247,0.000402301142
3.98335814,-5.60913904e-05
3.99169159,-0.000445083599
4.0000248,-0.000904148095
4.008358,-0.000253324746
4.01669121,0.000466499128
4.02502441,7.57541493e-05
4.03335762,-0.00038428203
4.04169083,0.000266349525
4.05002403,0.000986760715
4.05835724,0.000597383361
4.06669044,0.000139496755
4.07502365,-0.00024869648
4.08335686,-0.00070666743
4.09169006,-5.44543582e-05
4.10002327,0.000667057291
4.10835648,0.000278300751
4.11668968,-0.000179443639
4.12502289,-0.000567972776
4.13335609,-0.00102675846
4.1416893,-0.000375840027
4.15002251,0.000343895314
4.15835571,-4.71219682e-05
4.16668892,-0.000507614692
4.17502213,0.000142375487
4.18335533,0.00086195959
4.19168854,0.000471567939
4.20002174,1.24785638e-05
4.20835495,-0.000377107674
4.21668816,-0.000836664112
4.22502136,-0.000186231249
4.23335457,0.000533302722
4.24168777,0.000142368051
4.25002098,-0.000317757978
4.25835419,0.000332883501
4.26668739,0.00105340465
4.2750206,0.000664236955
4.28335381,0.000206660261
4.29168701,-0.000181122421
4.30002022,-0.000638581812
4.30835342,1.42450153e-05
4.31668663,0.000736473477
4.32501984,0.000348537811
4.33335304,-0.000108280394
4.34168625,-0.000495776592
4.35001945,-0.000953420997
4.35835266,-0.000301251624
4.36668587,0.000419846328
4.37501907,3.03054658e-05
4.38335228,-0.000428594882
4.39168549,0.000223105919
4.40001869,0.000944521744
4.4083519,0.000556085492
4.4166851,9.90779154e-05
4.42501831,-0.000288296957
4.43335152,-0.000745509053
4.44168472,-9.25954591e-05
4.45001793,0.000629559625
4.45835114,0.000241390066
4.46668434,-0.000215822714
4.47501755,-0.000603874796
4.48335075,-0.00106223719
4.49168396,-0.000410949026
4.50001717,0.00030910346
4.50835037,-8.16488173e-05
4.51668358,-0.000541928341
4.52501678,0.000108223452
4.53334999,0.00082791812
4.5416832,0.00043758619
4.5500164,-2.14947104e-05
4.55834961,-0.000411123416
4.56668282,-0.000870773336
4.57501602,-0.000220485104
4.58334923,0.0004988531
4.59168243,0.000107671047
4.60001564,-0.000352754316
4.60834885,0.000297535327
4.61668205,0.00101765152
4.62501526,0.000628025271
4.63334846,0.000169935796
4.64168167,-0.000218414643
4.65001488,-0.000676497584
4.65834808,-2.43510876e-05
4.66668129,0.000697139301
4.6750145,0.000308406627
4.6833477,-0.000149268701
4.69168091,-0.000537683547
4.70001411,-0.000996309682
4.70834732,-0.000345185894
4.71668053,0.000374800846
4.72501373,-1.59186966e-05
4.73334694,-0.000476067013
4.74168015,0.000174314817
4.75001335,0.000894338242
4.75834656,0.000504434633
4.76667976,4.58823961e-05
4.77501297,-0.00034311667
4.78334618,-0.000802035152
4.79167938,-0.000150912441
4.80001259,0.00056936458
4.80834579,0.000179227034
4.816679,-0.000280046836
4.82501221,-0.000670256151
4.83334541,-0.00113087508
4.84167862,-0.000481946045
4.85001183,0.00023564107
4.85834503,-0.000157686489
4.86667824,-0.000620655017
4.87501144,2.66900461e-05
4.88334465,0.00074345601
4.89167786,0.000350068905
4.90001106,-0.000112197915
4.90834427,0.000536611013
4.91667747,0.00125560514
4.92501068,0.000865214097
4.93334389,0.00040671532
4.94167709,1.83105622e-05
4.9500103,-0.000439471682
4.95834351,0.000213330874
4.96667671,0.000935833436
4.97500992,0.000548470824
4.98334312,9.25252898e-05
4.99167633,-0.000293797435
5.00000954,-0.000749965722
5.00834274,-9.60150501e-05
5.01667595,0.000627172005
5.02500916,0.000240030931
5.03334236,-0.000216155429
5.04167557,-0.000603181659
5.05000877,-0.00106051727
5.05834198,-0.000408199674
5.06667519,0.000312886375
5.07500839,-7.68267491e-05
5.0833416,-0.000536059844
5.0916748,0.000115147071
5.10000801,0.000835907122
5.10834122,0.000446652208
5.11667442,-1.13380211e-05
5.12500763,-0.000399860961
5.13334084,-0.000858388434
5.14167404,-0.000206959347
5.15000725,0.000513539999
5.15834045,0.000123541031
5.16667366,-0.000335677672
5.17500687,0.00031584414
5.18334007,0.00103722
5.19167328,0.000648883113
5.20000648,0.000192113876
5.20833969,-0.000194883265
5.2166729,-0.00065157772
5.2250061,1.99437636e-06
5.23333931,0.000724949816
5.24167252,0.000337723643
5.25000572,-0.00011840136
5.25833893,-0.000505219796
5.26667213,-0.000962200866
5.27500534,-0.00030938111
5.28333855,0.000412355148
5.29167175,2.34412873e-05
5.30000496,-0.000434842455
5.30833817,0.000217465611
5.31667137,0.000939479854
5.32500458,0.000551634468
5.33333778,9.52109549e-05
5.34167099,-0.000291585806
5.3500042,-0.000748224964
5.3583374,-9.47423323e-05
5.36667061,0.000627978472
5.37500381,0.000240372407
5.38333702,-0.000216278437
5.39167023,-0.000603769324
5.40000343,-0.0010615706
5.40833664,-0.000409719942
5.41666985,0.000310896488
5.42500305,-7.9289166e-05
5.43333626,-0.000538998633
5.44166946,0.000111727575
5.45000267,0.000832001795
5.45833588,0.000442255259
5.46666908,-1.62331835e-05
5.47500229,-0.000405261642
5.48333549,-0.000864302565
5.4916687,-0.000213395775
5.50000191,0.000506571261
5.50833511,0.000116029449
5.51666832,-0.000343743188
5.52500153,0.0003072127
5.53333473,0.00102800957
5.54166794,0.000639079837
5.55000114,0.000181703028
5.55833435,-0.000205917167
5.56666756,-0.00066325115
5.57500076,-1.0335847e-05
5.58333397,0.000711944187
5.59166718,0.000324023189
5.60000038,-0.000132817178
5.60833359,-0.000520372414
5.61666679,-0.000978112803
5.625,-0.000326076377
5.63333321,0.00039485158
5.64166641,5.10326208e-06
5.64999962,-0.000454042311
5.65833282,0.00019737515
5.66666603,0.000918468751
5.67499924,0.000529671321
5.68333244,7.22629848e-05
5.69166565,-0.00031555281
5.69999886,-0.000773246575
5.70833206,-0.000120856166
5.71666527,0.000600733154
5.72499847,0.00021195467
5.73333168,-0.000245910953
5.74166489,-0.000634660886
5.74999809,-0.00109376723
5.7583313,-0.000443269993
5.76666451,0.000275943166
5.77499771,-0.000115698102
5.78333092,-0.000576917606
5.79166412,7.22418772e-05
5.79999733,0.00079089019
5.80833054,0.000399456447
5.81666374,-6.07833681e-05
5.82499695,-0.000451629778
5.83333015,-0.000912557938
5.84166336,-0.000263610476
5.84999657,0.000454322493
5.85832977,6.16685429e-05
5.86666298,-0.000400297547
5.87499619,0.000248380355
5.88332939,0.000966811203
5.8916626,0.000575423706
5.8999958,0.000115494156
5.90832901,-0.000274777849
5.91666222,-0.000734866655
5.92499542,-8.48134005e-05
5.93332863,0.000634493073
5.94166183,0.000243482616
5.94999504,-0.000216567467
5.95832825,-0.000607457652
5.96666145,-0.0010686632
5.97499466,-0.000420227414
5.98332787,0.000296959101
5.99166107,-9.66771186e-05
5.99999428,-0.000559862878
6.00832748,8.73560639e-05
6.01666069,0.000804086856
6.0249939,0.000410755456
6.0333271,-5.13647465e-05
6.04166031,0.000597682025
6.04999352,0.00131700537
6.05832672,0.000927035406
6.06665993,0.000469050574
6.07499313,8.12529979e-05
6.08332634,-0.000375827804
6.09165955,-0.00076398754
6.09999275,-0.00122269779
6.10832596,-0.000571997836
6.11665916,0.000147224913
6.12499237,-0.000244599592
6.13332558,-0.000706195482
6.14165878,-5.7606172e-05
6.14999199,0.000660277263
6.1583252,0.000267882511
6.1666584,-0.000193515109
6.17499161,0.000456041074
6.18332481,0.00117566145
6.19165802,0.000785776763
6.19999123,0.000327665213
6.20832443,-6.04708985e-05
6.21665764,-0.000518102723
6.22499084,0.000134732254
6.23332405,0.000857149484
6.24165726,0.000469583611
6.24999046,1.33165249e-05
6.25832367,-0.000373446441
6.26665688,-0.000830174424
6.27499008,-0.000176903632
6.28332329,0.000545482326
6.29165649,0.000157417744
6.2999897,-0.000299815933
6.30832291,-0.000688014785
6.31665611,-0.00114664994
6.32498932,-0.000495760876
6.33332253,0.000223765179
6.34165573,-0.000167641454
6.34998894,-0.000628704089
6.35832214,2.05347387e-05
6.36665535,0.000739184848
6.37498856,0.000347675174
6.38332176,-0.000112718073
6.39165497,-0.000503795745
6.39998817,-0.000965033541
6.40832138,-0.000316474412
6.41665459,0.00040099083
6.42498779,7.7892073e-06
6.433321,-0.000454805297
6.44165421,0.000193162414
6.44998741,0.000910800416
6.45832062,0.000518536079
6.46665382,5.76444581e-05
6.47498703,-0.000333676202
