Time,Theta,ThetaDot,X,XDot
0.0083333333333333332,0.52394150058774258,0.087745333847378912,-1.3490181402475098e-05,-0.0034534358118361837
0.016666666666666666,0.52457581652611707,0.06296526363516404,0.00019829149479931151,0.05812882508594916
0.025000000000000001,0.52500412789675732,0.038304102921551238,0.00092323540449798644,0.11970550771458893
0.033333333333333333,0.52522724783747421,0.013716374847699529,0.0021613034237592589,0.18127875036564345
0.041666666666666664,0.52524561114085022,-0.010843251882886816,0.00391247520481342,0.24285068139998753
0.049999999999999996,0.52505927512873785,-0.035420049634402907,0.0061767481166525974,0.30442342522304477
0.058333333333333327,0.52466791980535754,-0.060059318361192021,0.0089541372353705746,0.36599910824946585
0.066666666666666666,0.52407084728934661,-0.084806472162397714,0.012244675384212702,0.4275798648714611
0.074999999999999997,0.52326698052394482,-0.10970712600823752,0.016048413223421727,0.48916784344492459
0.083333333333333329,0.52225486126334519,-0.13480718277600595,0.020365419390082171,0.55076521230722308
0.09166666666666666,0.52103264733209875,-0.16015292073162904,0.025195780688280028,0.61237416584006688
0.099999999999999992,0.51959810915333815,-0.18579108158925822,0.030539602330003697,0.67399693059021182
0.10833333333333332,0.51794862554049903,-0.21176895927689035,0.036397008227315127,0.73563577145982728
0.11666666666666665,0.51608117874617643,-0.23813448953018526,0.042768141336414232,0.79729299797720432
0.12499999999999999,0.51399234876075783,-0.26493634042932923,0.0496531640543032,0.8589709706569828
0.13333333333333333,0.51167830685255522,-0.29222400398471954,0.057052258668826648,0.92067210745725514
0.14166666666666666,0.50913480834031866,-0.3200478888661385,0.064965627862916722,0.98239889033863737
0.14999999999999999,0.50635718458827095,-0.34845941435658861,0.073393495273904069,1.0441538719276693
0.15833333333333333,0.50334033421319846,-0.37751110559566819,0.082336106108762908,1.1059396822835781
0.16666666666666666,0.50007871349265354,-0.40725669015778415,0.091793727816135082,1.1677590357634575
0.17499999999999999,0.49656632596304789,-0.43775119598706064,0.10176665081591903,1.2296147379761313
0.18333333333333332,0.49279671119632823,-0.46905105068282688,0.1122551892871067,1.2915096928092513
0.19166666666666665,0.48876293274411309,-0.50121418209629487,0.12325968201439641,1.3534469095073698
0.19999999999999998,0.48445756523863936,-0.53430012015953954,0.13478049329389477,1.41542950977065
0.20833333333333331,0.47987268064070704,-0.56837009982114239,0.14681801389793001,1.4774607348342867
0.21666666666666665,0.47499983362606346,-0.60348716490763132,0.15937266209862536,1.5395439524773791
0.22499999999999998,0.46983004610342516,-0.63971627266475639,0.17244488474940081,1.6016826638966517
0.23333333333333331,0.46435379085967488,-0.67712439865608309,0.18603515842297619,1.6638805103646761
0.24166666666666664,0.45856097433079845,-0.71578064160653343,0.20014399060370705,1.726141279573812
0.24999999999999997,0.45244091850096463,-0.75575632767326439,0.21477192093118011,1.7884689115454464
0.2583333333333333,0.44598234193692976,-0.79712511350328652,0.22991952249089548,1.8508675039588336
0.26666666666666666,0.43917333997083463,-0.83996308729380398,0.24558740314653735,1.9133413167243849
0.27500000000000002,0.43200136405162715,-0.88434886690438896,0.26177620690674319,1.9758947755919523
0.28333333333333338,0.42445320029400407,-0.93036369387643092,0.27848661531738672,2.0385324745448741
0.29166666666666674,0.41651494726416188,-0.97809152199109339,0.29571934886813628,2.1012591766845343
0.3000000000000001,0.40817199305403107,-1.0276190987381664,0.31347516839938849,2.164079813257048
0.30833333333333346,0.39940899171037325,-1.079036037770293,0.33175487649254043,2.2269994804126032
0.31666666666666682,0.3911566639009183,-0.88981472004639939,0.35004605718509357,2.1585997481464485
0.32500000000000018,0.38352817111480059,-0.94473536536504299,0.36828056536536335,2.2216370050939931
0.33333333333333354,0.37543530925465374,-1.0013882075365925,0.38704074307638175,2.2847671712358619
0.3416666666666669,0.36686324838358136,-1.0598748166646237,0.40632738658317491,2.3479959070273528
0.35000000000000026,0.35875763101308994,-0.87398288819271297,0.42562694920686145,2.2796183629595417
0.35833333333333361,0.35123371172911905,-0.93590175135237497,0.4448711761078048,2.3429705905845895
0.36666666666666697,0.34318721260717344,-0.99952725962323397,0.46464369852391613,2.4064161413779503
0.37500000000000033,0.33460347236267401,-1.0649722658932508,0.48494531830893939,2.4699612155803967
0.38333333333333369,0.32644152118908443,-0.88264031397299469,0.5052614505712183,2.4016347087695014
0.39166666666666705,0.31881824959695121,-0.95152597397575178,0.52552374390469414,2.4653107157388643
0.40000000000000041,0.31061428853513479,-1.0221337579560563,0.54631703840742807,2.5290820529068863
0.40833333333333377,0.30181480592060411,-1.0945871652908818,0.5676421545465119,2.5929553934528018
0.41666666666666713,0.2933909760725476,-0.91613507973939867,0.58898354320988833,2.5247087356056639
0.42500000000000049,0.28546089913518891,-0.99211635706322698,0.6102727707152561,2.5887225670100036
0.43333333333333385,0.27689079228316799,-1.0698753920128818,0.63209582835115841,2.6528353200821617
0.44166666666666721,0.26866094747959191,-0.8944870587595467,0.65393645789275168,2.5846520666701247
0.45000000000000057,0.26089091074933224,-0.97567189254109599,0.67572615175611928,2.6489057536634819
0.45833333333333393,0.252437661176172,-1.0585897221620784,0.69805166555792242,2.7132561158467356
0.46666666666666728,0.24428958822933258,-0.88635110295772013,0.72039610102406104,2.6451509227277703
0.47500000000000064,0.23656740897745027,-0.97263651730304024,0.74269088632083391,2.7096435191351458
0.483333333333334,0.22811960499929268,-1.0606323462955694,0.76552347679539179,2.7742313800088332
0.49166666666666736,0.21994176783470881,-0.89166518553079821,0.78837639494041001,2.706218564192608
0.50000000000000067,0.21215552723592884,-0.98301281016444597,0.81118101457502723,2.7709509915944031
0.50833333333333397,0.20461609638785067,-0.81619259855603055,0.83400679869609429,2.7029908822996367
0.51666666666666727,0.19744669503112261,-0.91061274644245771,0.85678505319073262,2.7678581693780253
0.52500000000000058,0.18948443012730892,-1.0066043068413357,0.88010420254704602,2.8328124173660587
0.53333333333333388,0.18173573197651161,-0.84304046798529853,0.90344591552704734,2.7649602476349404
0.54166666666666718,0.1743242656466929,-0.94215933686982367,0.92674146322217943,2.83005342129636
0.55000000000000049,0.16710410309549056,-0.78076462585614625,0.95006043741148583,2.7622665815403864
0.55833333333333379,0.16020021516014668,-0.88277801144056589,0.97333405086124092,2.8274898873043366
0.5666666666666671,0.15244050614621701,-0.98628261802215067,0.99715150314966949,2.8927943424702578
0.5750000000000004,0.14483971986930286,-0.82821440354872589,1.0209937907788551,2.8251296388979172
0.5833333333333337,0.13752286589869253,-0.93473208416648523,1.0447921103443327,2.8905702139937257
0.59166666666666701,0.13034283134898789,-0.77891927761121427,1.0686161646100623,2.8229830537662455
0.60000000000000031,0.12342567422096004,-0.88826093591860333,1.0923971019486529,2.8885521564504493
0.60833333333333361,0.11662438204311935,-0.73462225215998156,1.1162046432823409,2.8210432477818332
0.61666666666666692,0.11006594218910065,-0.8466177606017451,1.1399698935042566,2.8867337900272303
0.62500000000000022,0.10256893020906899,-0.95999535578864259,1.1642828419652396,2.9524967235958095
0.63333333333333353,0.095156674287578527,-0.80975268753281593,1.1886237840365077,2.8851246521843938
0.64166666666666683,0.087955670884689807,-0.92598450670673593,1.2129238343685012,2.9510176332709857
0.65000000000000013,0.080817597659106372,-0.77810384457461446,1.2372528075107161,2.883737302532444
0.65833333333333344,0.073869654600404788,-0.89705835634012854,1.2615417848474659,2.9497545038803392
0.66666666666666674,0.066963568875031187,-0.75149502348814157,1.2858605924784137,2.8825668274037586
0.67500000000000004,0.060227136837823832,-0.87305838844061967,1.3101402833091662,2.9487030054003629
0.68333333333333335,0.05351212904430043,-0.72977683239900104,1.3344506924074333,2.8816088232572494
0.69166666666666665,0.046946837842070238,-0.85385196409476682,1.3587228488201928,2.9478593153890271
0.69999999999999996,0.040383065640540353,-0.71282645384045418,1.3830265946323501,2.8808595139261306
0.70833333333333326,0.033949506193058254,-0.83933214923970767,1.4072929394913352,2.9472202253989184
0.71666666666666656,0.027497977784536477,-0.7005474047567628,1.4315917310476218,2.8803158374459583
0.72499999999999987,0.021157485823172142,-0.82941754200173556,1.4558539638600831,2.9467832191130703
0.73333333333333317,0.014779844872467723,-0.69286932214068286,1.4801494900778462,2.8799755083534806
0.74166666666666647,0.0084942861845815221,-0.82405212097029934,1.5044092933514295,2.9465465273192408
0.74999999999999978,0.0021525980914882969,-0.68974779179979506,1.5287032295453491,2.8798370598477128
0.75833333333333308,-0.0041158450291620807,-0.82320512966539239,1.5529622754711114,2.946509163441831
0.76666666666666639,-0.010459305887514151,-0.69116423238964597,1.5772562901177047,2.8798998688842725
0.77499999999999969,-0.016748347410491422,-0.82687100728083673,1.6015162474371407,2.9466709421026396
0.78333333333333299,-0.023131309916567082,-0.6971258420925871,1.6258120090592734,2.8801641660836759
0.7916666666666663,-0.028437409137627632,-0.56845959276413915,1.6495537493279362,2.8137076451126686
0.7999999999999996,-0.033716082033730499,-0.707247199030961,1.6732626420220491,2.8806144999151546
0.8083333333333329,-0.039114157286189603,-0.58053934738000657,1.6970084814533097,2.8142470350891071
0.81666666666666621,-0.044500758681558526,-0.72118776975319687,1.7207221828580879,2.8812340526820091
0.82499999999999951,-0.050022853190010354,-0.59649484009281661,1.7444735429670781,2.8149586057693377
0.83333333333333282,-0.05554976340275742,-0.73902599700277583,1.7681934871733904,2.8820256026484756
0.84166666666666612,-0.061228623300535655,-0.6164171749138545,1.7919518145803592,2.815845640894548
0.84999999999999942,-0.066929017552301004,-0.76086208711826731,1.8156794638588489,2.8829926334362503
0.85833333333333273,-0.072798275748210156,-0.64041986689240582,1.8394462362522719,2.8169121513683635
0.86666666666666603,-0.077668028391241845,-0.52101457272655483,1.8626625491493256,2.7508841802118917
0.87499999999999933,-0.082584032893521342,-0.66815522419465234,1.8858493083955175,2.8181465244581205
0.88333333333333264,-0.087692267104027624,-0.55064194243610043,1.9090762476714893,2.7522061612249065
0.89166666666666594,-0.092861670717376082,-0.69945303093333655,1.9322742864264826,2.8195357747379175
0.89999999999999925,-0.098238498322048604,-0.58394169687336273,1.9555131621577828,2.7536880634988314
0.90833333333333255,-0.10265663069191944,-0.46939601137942172,1.9782035107279179,2.6878909023992019
0.91666666666666585,-0.10715840946190983,-0.62059823080051313,2.0008659835191844,2.7553205291395568
0.92499999999999916,-0.1118888479996312,-0.50781425313875539,2.0235702530896686,2.6896052472250189
0.93333333333333246,-0.11671661709913923,-0.66051840944484463,2.0462472380991117,2.757092729489472
0.94166666666666576,-0.12178708955548091,-0.5496331672594521,2.0689666169050422,2.6914654841424763
0.94999999999999907,-0.12593725628424271,-0.43967294071467389,2.0911393022283571,2.6258878574311466
0.95833333333333237,-0.13020580258618503,-0.59456644038874717,2.1132856595282457,2.6934642919990504
0.96666666666666567,-0.13473697378156535,-0.48630008850486012,2.1354753055074069,2.6279652928535162
0.97499999999999898,-0.13836927905805527,-0.37886069558669189,2.1571193085161537,2.5625112272684163
0.98333333333333228,-0.14213856644670536,-0.53566134683332933,2.178737827441561,2.6301638834723802
0.99166666666666559,-0.14618804246700867,-0.42972921643148526,2.2004004217958637,2.5647797573151085
0.99999999999999889,-0.1503859921360288,-0.58775791223157448,2.2220380153523469,2.6324760432330661
1.0083333333333322,-0.15487611957293709,-0.4835098230385918,2.2437201779490832,2.5671697251605319
1.0166666666666655,-0.15850088531706316,-0.38009424122671465,2.2648583069157335,2.5019092901243689
1.0249999999999988,-0.16229247386093273,-0.53996988653847067,2.285972260001826,2.5696767545724
1.0333333333333321,-0.16639365260231051,-0.43808576021451628,2.3071315526690106,2.5044869089158341
1.0416666666666654,-0.1696488862630923,-0.3369620688635514,2.3277477681301342,2.4393393134730692
1.0499999999999987,-0.17308751907022477,-0.49848568853707192,2.3483405492312026,2.5071689455509008
1.058333333333332,-0.17685146889933318,-0.39875918288140649,2.3689793615487704,2.4420855429269999
1.0666666666666653,-0.17978720512161356,-0.29972983840440015,2.3890759709040159,2.3770411214184652
1.0749999999999986,-0.1829213803615844,-0.46273206089569868,2.4091498149079693,2.4449253282710903
1.0833333333333319,-0.18639514593656711,-0.36498286937518737,2.4292703135717151,2.3799394983481363
1.0916666666666652,-0.18905695937356873,-0.26787589032166803,2.4488494110532502,2.3149897572412859
1.0999999999999985,-0.19193093014536097,-0.4322132692508876,2.4684063497109934,2.3829221671307041
1.1083333333333318,-0.19515752108899745,-0.33628560271225416,2.4880105080482866,2.3180261742382307
1.1166666666666651,-0.19758715388132991,-0.24095306460883636,2.5070740039888562,2.2531637568831129
1.1249999999999984,-0.20024153682961221,-0.40650498740306179,2.5261158943400024,2.3211390481248255
1.1333333333333317,-0.20326051719114893,-0.31226614393918167,2.5452055198409376,2.2563262518405338
1.1416666666666651,-0.20549645663557112,-0.21858278288273431,2.5637551678503789,2.1915448927303509
1.1499999999999984,-0.2079687932510316,-0.38524888610819619,2.5822837186102618,2.2595586467882272
1.1583333333333317,-0.21081682639370289,-0.29258795652290442,2.6008604784979892,2.1948234562215183
1.166666666666665,-0.21289483922384123,-0.20044992229935871,2.6188979006391762,2.1301179321238251
1.1749999999999983,-0.21522011614778405,-0.36814794321621974,2.6369146966599173,2.1981665083686353
1.1833333333333316,-0.217931471198759,-0.27697468334298991,2.6549801416254808,2.1335043359521726
1.1916666666666649,-0.21988510085665811,-0.18629846877539441,2.6725068517596182,2.0688704187660321
1.1999999999999982,-0.22209623544328394,-0.35496247214987942,2.69001337674481,2.1369508480716095
1.2083333333333315,-0.22470326137438709,-0.26520636247552093,2.7075689630291433,2.072358066669076
1.2166666666666648,-0.22656429449949736,-0.17592792644128613,2.7245863885420949,2.0077924811456014
1.2249999999999981,-0.22869259173094744,-0.34550685424259797,2.7415840462287187,2.0759023754196906
1.2333333333333314,-0.23122616498994283,-0.25711636036079133,2.7586311562626165,2.0113762811866858
1.2416666666666647,-0.23302507315033272,-0.16919045610823313,2.7751406584015226,1.9468766694825994
1.249999999999998,-0.23510065980222994,-0.33964695516168603,2.791630792435424,2.0150141442742489
1.2583333333333313,-0.23759061123290501,-0.25258899844042521,2.8081707542574574,1.9505529267736896
1.2666666666666646,-0.23935697371066042,-0.16598871550213681,2.8241736473088075,1.8861178210154936
1.2749999999999979,-0.24140921546338912,-0.33729820436182251,2.840157560038969,1.9542814284199463
1.2833333333333312,-0.24388474206841346,-0.2515578500658236,2.8561916657078976,1.8898841488516254
1.2916666666666645,-0.24564765531140223,-0.16627437650797977,2.8716892352398582,1.8255129523457612
1.2999999999999978,-0.24670117057431265,-0.081296297470089054,2.886650452247991,1.761159197633581
1.3083333333333311,-0.2480513893539035,-0.25354894722842158,2.9015931660713234,1.8293542196186812
1.3166666666666644,-0.24983431141674028,-0.16914091853865712,2.9165864847900491,1.7650253808038905
1.3249999999999977,-0.25091515152191046,-0.085043803603672141,2.9310438051647085,1.7007143037152206
1.333333333333331,-0.25229878243173065,-0.25785575957869639,2.945482875307075,1.7689256081172584
1.3416666666666643,-0.25412108638344855,-0.17434322595559318,2.9599727906807667,1.7046399760842539
1.3499999999999976,-0.25524880780213483,-0.091151311312667307,2.9739270698916611,1.6403726634507312
1.358333333333331,-0.25568403814943708,-0.0081314830402051536,2.9873458324056474,1.5761151713743451
1.3666666666666643,-0.25642909717461804,-0.18153453869040903,3.0007466505999623,1.644345486790731
1.3749999999999976,-0.25761865606589129,-0.098833932724883916,3.0141985674686156,1.5801017948202878
1.3833333333333309,-0.25811987165148631,-0.016319251807422899,3.0271151675454795,1.515868716288987
1.3916666666666642,-0.25893441478766621,-0.19004441885158688,3.0400139673677447,1.5841080778912406
1.3999999999999975,-0.26019696540423115,-0.10787809729563842,3.0529640053602405,1.5198900269450981
1.4083333333333308,-0.26077568820852237,-0.025914009196549681,3.0653789438498897,1.4556835233094978
1.4166666666666641,-0.26167154827851835,-0.19998914418456995,3.0777762383811504,1.5239325817772864
1.4249999999999974,-0.26301924284442385,-0.11840754434773373,3.0902249225751564,1.4597425379138145
1.4333333333333307,-0.2636880559000041,-0.037047189091782444,3.1021387448702491,1.3955651292666811
1.441666666666664,-0.26367926148802051,0.044237727726828109,3.1135177779366523,1.3313920042863461
1.4499999999999973,-0.26399191139454858,-0.13018009892778565,3.1248793510224058,1.399651692102313
1.4583333333333306,-0.26475965266217022,-0.049034359295034184,3.1362924552457399,1.3354844777484267
1.4666666666666639,-0.26485165867000593,0.03201444079704082,3.1471708599902319,1.2713227789639623
1.4749999999999972,-0.26526677529977249,-0.14256068619190967,3.158031872933774,1.3395867309929825
1.4833333333333305,-0.26613876215572052,-0.061693882431301396,3.1689444867361036,1.2754327806699755
1.4916666666666638,-0.2663374266869965,0.019053252685052331,3.1793225166597536,1.2112856478438627
1.4999999999999971,-0.2658632001225128,0.09982560674216738,3.189165987086386,1.1471370304133792
1.5083333333333304,-0.26571364832691802,-0.074846213065770884,3.1989921297416104,1.2154038829176945
1.5166666666666637,-0.26602159024522082,0.0059800509615617788,3.2088699026430256,1.1512528396383181
1.524999999999997,-0.26565607340049185,0.086808067623991278,3.2182130887175799,1.0871016564622662
1.5333333333333303,-0.26561491370252932,-0.087843681690364078,3.2275389346149703,1.1553679842356344
1.5416666666666636,-0.26603111123003076,-0.0070070470800416007,3.236916405040815,1.0912163275194662
1.5499999999999969,-0.2657738545938747,0.073808038771595683,3.2457592887438298,1.0270658662151468
1.5583333333333302,-0.26484275705753169,0.15474655669512444,3.2540675632344191,0.96290829303448
1.5666666666666635,-0.26423494271746256,-0.019764973465073388,3.2623584467521884,1.0311701881664266
1.5749999999999968,-0.26408254628243899,0.06141880639220533,3.2707008755459204,0.96700193012958846
1.5833333333333302,-0.26325332410383562,0.14270369122446541,3.2785085518390242,0.9028278387791383
1.5916666666666635,-0.26274508145208908,-0.031608829150671536,3.2862987439643567,0.97108435065154841
1.5999999999999968,-0.2626901792308951,0.049879606145566593,3.2941403990672331,0.90690136085420625
1.6083333333333301,-0.26195599389360535,0.13144838437494918,3.3014471835697998,0.84271372706546444
1.6166666666666634,-0.26154090452808454,-0.042702022244448933,3.3087364075784698,0.91096582090019307
1.6249999999999967,-0.26157747527179465,0.03903132806852562,3.3160770278009686,0.84677096490832304
1.63333333333333,-0.26093279833485283,0.12082552999291903,3.3228826829158522,0.78257258170143063
1.6416666666666633,-0.25960579462436634,0.20282703319135059,3.3291533107581026,0.7183622822530723
1.6499999999999966,-0.25859458897535903,0.0290208379322183,3.3354062296803275,0.78660342590837828
1.6583333333333299,-0.25803089769715221,0.11143531310428317,3.3417103710325056,0.72237511411874855
1.6666666666666632,-0.25677977810729857,0.19404000232773669,3.3474792395658302,0.65813586397442914
