Time,Theta
0.00833333377,0.291088104
0.0166666675,0.291219711
0.0250000022,0.29072246
0.0333333351,0.289595455
0.0416666679,0.28783673
0.0500000007,0.285443276
0.0583333336,0.282410771
0.0666666701,0.27873379
0.075000003,0.275400221
0.0833333358,0.272537291
0.0916666687,0.269012541
0.100000001,0.264819533
0.108333334,0.260950118
0.116666667,0.257531166
0.125,0.25342378
0.13333334,0.249623552
0.141666681,0.246257916
0.150000021,0.242184252
0.158333361,0.238401324
0.166666701,0.235037267
0.175000042,0.230945602
0.183333382,0.227128431
0.191666722,0.223714113
0.200000063,0.219552547
0.208333403,0.2156488
0.216666743,0.212131605
0.225000083,0.207847163
0.233333424,0.203803465
0.241666764,0.20012939
0.250000089,0.196684718
0.258333415,0.193599567
0.26666674,0.189715415
0.275000066,0.186045364
0.283333391,0.182719439
0.291666716,0.178575993
0.300000042,0.174630195
0.308333367,0.171012133
0.316666692,0.167580545
0.325000018,0.16446647
0.333333343,0.160503983
0.341666669,0.156712472
0.349999994,0.153222635
0.358333319,0.149892971
0.366666645,0.146855116
0.37499997,0.142939374
0.383333296,0.139168501
0.391666621,0.135673776
0.399999946,0.132313102
0.408333272,0.129218578
0.416666597,0.125216872
0.424999923,0.121333696
0.433333248,0.117700532
0.441666573,0.114174612
0.449999899,0.110888198
0.458333224,0.10769885
0.466666549,0.104739465
0.474999875,0.100832894
0.4833332,0.0970084146
0.491666526,0.0933981091
0.499999851,0.089858748
0.508333206,0.0865229964
0.516666532,0.0832478851
0.524999857,0.0801666006
0.533333182,0.0771364048
0.541666508,0.0742909759
0.549999833,0.0714878291
0.558333158,0.0688610524
0.566666484,0.0652294978
0.574999809,0.0616267063
0.583333135,0.0581856407
0.59166646,0.054762762
0.599999785,0.0514913946
0.608333111,0.0482281446
0.616666436,0.0451066792
0.624999762,0.0419837497
0.633333087,0.0389932878
0.641666412,0.0359921642
0.649999738,0.0331145674
0.658333063,0.0302174874
0.666666389,0.027435299
0.674999714,0.0246250872
0.683333039,0.0219214167
0.691666365,0.0191814397
0.69999969,0.0165398568
0.708333015,0.0138538927
0.716666341,0.0112583525
0.724999666,0.00861050002
0.733332992,0.00604522415
0.741666317,0.00341981277
0.749999642,0.000869208307
0.758332968,-0.00174929481
0.766666293,-0.00430073077
0.774999619,-0.0069278162
0.783332944,-0.00949558988
0.791666269,-0.012146797
0.799999595,-0.0147465058
0.80833292,-0.0174375158
0.816666245,-0.0200849511
0.824999571,-0.0228316728
0.833332896,-0.0255428944
0.841666222,-0.0283615664
0.849999547,-0.030111786
0.858332872,-0.0318375379
0.866666198,-0.033680249
0.874999523,-0.0355038345
0.883332849,-0.0374498479
0.891666174,-0.0393823683
0.899999499,-0.0414431058
0.908332825,-0.0434963219
0.91666615,-0.045683898
0.924999475,-0.0478703007
0.933332801,-0.0501975678
0.941666126,-0.0525304042
0.949999452,-0.0550110564
0.958332777,-0.0564646423
0.966666102,-0.0579333007
0.974999428,-0.0595579036
0.983332753,-0.0612022094
0.991666079,-0.0630073026
0.999999404,-0.0648372397
1.00833273,-0.0668333918
1.01666605,-0.0688600764
1.02499938,-0.071058929
1.03333271,-0.0722560659
1.04166603,-0.0734919757
1.04999936,-0.0749070346
1.05833268,-0.0763648003
1.06666601,-0.0780059472
1.07499933,-0.0796944275
1.08333266,-0.0815712065
1.09166598,-0.0824630782
1.09999931,-0.0834090337
1.10833263,-0.0845488831
1.11666596,-0.0857459307
1.12499928,-0.0871402994
1.13333261,-0.0885957032
1.14166594,-0.0902526602
1.14999926,-0.0909386426
1.15833259,-0.0916914344
1.16666591,-0.092650421
1.17499924,-0.0936787426
1.18333256,-0.0949161649
1.19166589,-0.0962262824
1.19999921,-0.097749263
1.20833254,-0.098313354
1.21666586,-0.0989553258
1.22499919,-0.0998142436
1.23333251,-0.100753225
1.24166584,-0.101911798
1.24999917,-0.103153512
1.25833249,-0.104618356
1.26666582,-0.105135463
1.27499914,-0.105740637
1.28333247,-0.106572792
1.29166579,-0.107495129
1.29999912,-0.108647019
1.30833244,-0.108857758
1.31666577,-0.109162167
1.32499909,-0.109698623
1.33333242,-0.110329971
1.34166574,-0.111195073
1.34999907,-0.111123212
1.3583324,-0.111148462
1.36666572,-0.111408696
1.37499905,-0.111766413
1.38333237,-0.112360023
1.3916657,-0.113052487
1.39999902,-0.113982715
1.40833235,-0.113980532
1.41666567,-0.114079714
1.424999,-0.114418201
1.43333232,-0.114858657
1.44166565,-0.115539551
1.44999897,-0.115290612
1.4583323,-0.115145028
1.46666563,-0.115240328
1.47499895,-0.115438849
1.48333228,-0.115878694
1.4916656,-0.115389273
1.49999893,-0.115003377
1.50833225,-0.11485818
1.51666558,-0.114815675
1.5249989,-0.115013592
1.53333223,-0.115314357
1.54166555,-0.115856245
1.54999888,-0.11546883
1.5583322,-0.115185045
1.56666553,-0.115142226
1.57499886,-0.115202539
1.58333218,-0.115503788
1.59166551,-0.114875183
1.59999883,-0.114349343
1.60833216,-0.114063248
1.61666548,-0.113878675
1.62499881,-0.113933131
1.63333213,-0.113055177
1.64166546,-0.112277322
1.64999878,-0.111736156
1.65833211,-0.111293085
1.66666543,-0.111085229
1.67499876,-0.110974438
1.68333209,-0.111098401
1.69166541,-0.110285327
1.69999874,-0.109568194
1.70833206,-0.109083764
1.71666539,-0.108693436
1.72499871,-0.108534493
1.73333204,-0.108468808
1.74166536,-0.108634159
1.74999869,-0.107858457
1.75833201,-0.107175067
1.76666534,-0.106720835
1.77499866,-0.106357194
1.78333199,-0.106221482
1.79166532,-0.105140813
1.79999864,-0.104148448
1.80833197,-0.103380777
1.81666529,-0.102698728
1.82499862,-0.102239221
1.83333194,-0.101863608
1.84166527,-0.101709291
1.84999859,-0.100602686
1.85833192,-0.0995776057
1.86666524,-0.0987704694
1.87499857,-0.0980420709
1.88333189,-0.0975293368
1.89166522,-0.097093448
1.89999855,-0.0968718082
1.90833187,-0.0956900567
1.9166652,-0.0945824832
1.92499852,-0.0936854556
1.93333185,-0.0928595811
1.94166517,-0.0922417119
1.9499985,-0.0916927755
1.95833182,-0.0913501084
1.96666515,-0.0900384262
1.97499847,-0.0887924656
1.9833318,-0.0877484977
1.99166512,-0.0867668018
1.99999845,-0.0859840959
2.00833178,-0.0852609947
2.01666522,-0.0847346187
2.02499866,-0.0842659399
2.03333211,-0.0839924738
2.04166555,-0.0827382058
2.049999,-0.0815387294
2.05833244,-0.0805304945
2.06666589,-0.0795737132
2.07499933,-0.078805238
2.08333278,-0.0780856088
2.09166622,-0.0775520578
2.09999967,-0.0760274082
2.10833311,-0.0745475218
2.11666656,-0.0732485056
2.125,-0.0719900578
2.13333344,-0.0709086508
2.14166689,-0.0698643103
2.15000033,-0.0689938441
2.15833378,-0.0681575313
2.16666722,-0.0674925447
2.17500067,-0.066859439
2.18333411,-0.0663957372
2.19166756,-0.0649232194
2.200001,-0.0634787977
2.20833445,-0.0621987991
2.21666789,-0.0609427877
2.22500134,-0.059847407
2.23333478,-0.0587724745
2.24166822,-0.0578549393
2.25000167,-0.0569548532
2.25833511,-0.0562094301
2.26666856,-0.0554789677
2.275002,-0.0549009591
2.28333545,-0.0543359332
2.29166889,-0.0539216436
2.30000234,-0.0524788871
2.30833578,-0.0510455668
2.31666923,-0.0497581325
2.32500267,-0.0484760441
2.33333611,-0.0473359972
2.34166956,-0.0461976379
2.350003,-0.0451979265
2.35833645,-0.0441966802
2.36666989,-0.0433310792
2.37500334,-0.0424611308
2.38333678,-0.0417242274
2.39167023,-0.0409805551
2.40000367,-0.0403677076
2.40833712,-0.0397460386
2.41667056,-0.0392533429
2.42500401,-0.037709333
2.43333745,-0.036152605
2.44167089,-0.0347195454
2.45000434,-0.0332692713
2.45833778,-0.0319383554
2.46667123,-0.0305860359
2.47500467,-0.02934907
2.48333812,-0.0280868039
2.49167156,-0.026936138
2.50000501,-0.0257565491
2.50833845,-0.0246850699
2.5166719,-0.0235812832
2.52500534,-0.0225823466
2.53333879,-0.0215479359
2.54167223,-0.0206153262
2.55000567,-0.0196442828
2.55833912,-0.0187721979
2.56667256,-0.017858902
2.57500601,-0.0170418806
2.58333945,-0.0161810629
2.5916729,-0.0154139977
2.60000634,-0.0146006821
2.60833979,-0.0138787515
2.61667323,-0.0131082628
2.62500668,-0.0124269249
2.63334012,-0.0116948457
2.64167356,-0.0110497978
2.65000701,-0.0103519373
2.65834045,-0.00973909255
2.6666739,-0.00907146838
2.67500734,-0.00848694053
2.68334079,-0.00784575287
2.69167423,-0.00728582218
2.70000768,-0.00666742679
2.70834112,-0.00612852117
2.71667457,-0.0055294144
2.72500801,-0.00500809122
2.73334146,-0.00442488352
2.7416749,-0.00391780352
2.75000834,-0.00334720314
2.75834179,-0.00285111391
2.76667523,-0.00228990428
2.77500868,-0.0018016207
2.78334212,-0.00124664244
2.79167557,-0.000763025775
2.80000901,-0.000211157021
2.80834246,0.000270902121
2.8166759,0.000822763774
2.82500935,0.00130636559
2.83334279,0.00186132151
2.84167624,0.00234957389
2.85000968,0.00291074417
2.85834312,0.00340678333
2.86667657,0.00397732481
2.87501001,0.0044843331
2.88334346,0.00506745651
2.8916769,0.00558867957
2.90001035,0.00618767273
2.90834379,0.00672644284
2.91667724,0.00734468596
2.92501068,0.00790443923
2.93334413,0.00854542758
2.94167757,0.00912972726
2.95001101,0.00979709532
2.95834446,0.0104096467
2.9666779,0.011107184
2.97501135,0.0117518632
2.98334479,0.0124835353
2.99167824,0.0131644132
3.00001168,0.0139343971
3.00834513,0.0146557558
3.01667857,0.0154684512
3.02501202,0.0162348188
3.03334546,0.0170948822
3.04167891,0.0179110542
3.05001235,0.0188234262
3.05834579,0.0196944941
3.06667924,0.0206644274
3.07501268,0.0215958059
3.08334613,0.0226288959
3.09167957,0.0225849394
3.10001302,0.0225054137
3.10834646,0.022529047
3.11667991,0.0225170236
3.12501335,0.0226081721
3.1333468,0.0226637777
3.14168024,0.0228227619
3.15001369,0.0229465161
3.15834713,0.0231740735
3.16668057,0.0233669225
3.17501402,0.023664197
3.18334746,0.0239274837
3.19168091,0.0242960341
3.20001435,0.0246315412
3.2083478,0.0250733495
3.21668124,0.0254832786
3.22501469,0.0260007754
3.23334813,0.026487777
3.24168158,0.0270838421
3.25001502,0.0276510268
3.25834846,0.0283290092
3.26668191,0.0289799701
3.27501535,0.0297437161
3.2833488,0.0294413418
3.29168224,0.0291137192
3.30001569,0.0288991611
3.30834913,0.0286585335
3.31668258,0.0285302792
3.32501602,0.0283753853
3.33334947,0.0283324402
3.34168291,0.02826255
3.35001636,0.0283044297
3.3583498,0.0283193178
3.36668324,0.0284460522
3.37501669,0.0285459999
3.38335013,0.0287581254
3.39168358,0.0289439205
3.40001702,0.029242482
3.40835047,0.0295154303
3.41668391,0.0299019944
3.42501736,0.030263925
3.4333508,0.0307405833
3.44168425,0.031193858
3.45001769,0.0317632481
3.45835114,0.0323107764
3.46668458,0.0329760797
3.47501802,0.0325802453
3.48335147,0.0321638808
3.49168491,0.0318651535
3.50001836,0.031544812
3.5083518,0.0313411653
3.51668525,0.0311151072
3.52501869,0.0310050976
3.53335214,0.0308721624
3.54168558,0.030854905
3.55001903,0.0308144875
3.55835247,0.0308896564
3.56668591,0.0309417062
3.57501936,0.0311095212
3.5833528,0.0312545374
3.59168625,0.0315157771
3.60001969,0.0317548178
3.60835314,0.0321108289
3.61668658,0.0324455202
3.62502003,0.0328982174
3.63335347,0.0333307534
3.64168692,0.0338825993
3.65002036,0.0333747305
3.65835381,0.0328475349
3.66668725,0.0324389972
3.67502069,0.0320097208
3.68335414,0.0316978432
3.69168758,0.0313641056
3.70002103,0.0311467946
3.70835447,0.0309067816
3.71668792,0.0307825059
3.72502136,0.0306349732
3.73335481,0.0306027643
3.74168825,0.0305470172
3.7500217,0.030606458
3.75835514,0.0306423567
3.76668859,0.0307935774
3.77502203,0.0309215244
3.78335547,0.0311652031
3.79168892,0.0313861594
3.80002236,0.0317235328
3.80835581,0.0320390128
3.81668925,0.0324718803
3.8250227,0.0318428688
3.83335614,0.0311922263
3.84168959,0.0306577887
3.85002303,0.030099947
3.85835648,0.0296566617
3.86668992,0.0291884653
3.87502337,0.0288334563
3.88335681,0.0284522902
3.89169025,0.0281832032
3.9000237,0.0278869737
3.90835714,0.0277019683
3.91669059,0.0274890903
3.92502403,0.0273868367
3.93335748,0.0272562318
3.94169092,0.0272358954
3.95002437,0.0271869712
3.95835781,0.0272482038
3.96669126,0.0272808596
3.9750247,0.0274238028
3.98335814,0.0275384225
3.99169159,0.0277637169
4.0000248,0.0279611852
4.008358,0.0282699503
4.01669121,0.0275103804
4.02502441,0.0267227124
4.03335762,0.0260445662
4.04169083,0.0253361091
4.05002403,0.0247350968
4.05835724,0.0241018031
4.06669044,0.0235740971
4.07502365,0.0230123624
4.08335686,0.022554582
4.09169006,0.0220612362
4.10002327,0.0216704141
4.10835648,0.0212426912
4.11668968,0.0209162645
4.12502289,0.0205518007
4.13335609,0.0202875938
4.1416893,0.019984398
4.15002251,0.0197806042
4.15835571,0.0195370559
4.16668892,0.0193922371
4.17502213,0.0192070678
4.18335533,0.0191201288
4.19168854,0.0189924333
4.20002174,0.018962644
4.20835495,0.0188918542
4.21668816,0.0189188104
4.22502136,0.0189046934
4.23335457,0.018988343
4.24168777,0.0190310106
4.25002098,0.0191716291
4.25835419,0.019271547
4.26668739,0.0194697659
4.2750206,0.0196277201
4.28335381,0.0198845062
4.29168701,0.0190601293
4.30002022,0.0181949753
4.30835342,0.0174265951
4.31668663,0.0166149829
4.32501984,0.0158977751
4.33335304,0.0151350321
4.34168625,0.0144644761
4.35001945,0.0137462346
4.35835266,0.0131180938
4.36668587,0.0124402409
4.37501907,0.0118505321
4.38335228,0.0112092057
4.39168549,0.0106541775
4.40001869,0.0100457352
4.4083519,0.00952184107
4.4166851,0.0089428341
4.42501831,0.00844672509
4.43335152,0.00789388455
4.44168472,0.00742236478
4.45001793,0.00689257775
4.45835114,0.00644260924
4.46668434,0.00593290245
4.47501755,0.00550157484
4.48335075,0.00500909612
4.49168396,0.00459361076
4.50001717,0.00411560992
4.50835037,0.00371326203
4.51668358,0.00324707874
4.52501678,0.00285524642
4.53334999,0.00239829021
4.5416832,0.00201441301
4.5500164,0.00156415009
4.55834961,0.00118571497
4.56668282,0.000739651383
4.57501602,0.000364179403
4.58334923,-8.01526985e-05
4.59168243,-0.000455121917
4.60001564,-0.000900179672
4.60834885,-0.00127710344
4.61668205,-0.00172534795
4.62501526,-0.00210669497
4.63334846,-0.00256060599
4.64168167,-0.00294887112
4.65001488,-0.00341096125
4.65834808,-0.00380867999
4.66668129,-0.004281512
4.6750145,-0.00469127484
4.6833477,-0.00517747272
4.69168091,-0.00560194533
4.70001411,-0.00610421691
4.70834732,-0.00654614996
4.71668053,-0.00706729433
4.72501373,-0.00752954325
4.73334694,-0.0080724759
4.74168015,-0.00855801813
4.75001335,-0.00912578125
4.75834656,-0.00963773113
4.76667976,-0.0102335196
4.77501297,-0.0107751507
4.78334618,-0.0114023229
4.79167938,-0.0109354081
4.80001259,-0.0104154954
4.80834579,-0.00998067763
4.816679,-0.00949142594
4.82501221,-0.00908588152
4.83334541,-0.00862455927
4.84167862,-0.00824564509
4.85001183,-0.00780968741
4.85834503,-0.00745491404
4.86667824,-0.00704191159
4.87501144,-0.00670894142
4.88334465,-0.00631662086
4.89167786,-0.00600324385
4.90001106,-0.00562945521
4.90834427,-0.00533357821
4.91667747,-0.00497628422
4.92501068,-0.00469592307
4.93334389,-0.00435318751
4.94167709,-0.00408645021
4.9500103,-0.00375642302
4.95834351,-0.00350149744
4.96667671,-0.00318240421
4.97500992,-0.00293755159
4.98334312,-0.00262768497
4.99167633,-0.00239122636
5.00000954,-0.00208893395
5.00834274,-0.00185924186
5.01667595,-0.00156291737
5.02500916,-0.0013384046
5.03334236,-0.00104647782
5.04167557,-0.000825588184
5.05000877,-0.000536515377
5.05834198,-0.000317715312
5.06667519,-2.99706699e-05
5.07500839,0.000188260703
5.0833416,0.000476195157
5.0916748,0.000695375027
5.10000801,0.000985018094
5.10834122,0.00120666903
5.11667442,0.0014995496
5.12500763,0.00172520906
5.13334084,0.00202287477
5.14167404,0.00225410401
5.15000725,0.002558131
5.15834045,0.00279652351
5.16667366,0.00310852635
5.17500687,0.00335571868
5.18334007,0.00367735885
5.19167328,0.00393503997
5.20000648,0.00426803762
5.20833969,0.00453796005
5.2166729,0.00488410145
5.2250061,0.00516808918
5.23333931,0.00552923884
5.24167252,0.00582920155
5.25000572,0.00620731385
5.25833893,0.00652525481
5.26667213,0.00692238845
5.27500534,0.00621869043
5.28333855,0.00545494165
5.29167175,0.00476888008
5.30000496,0.00402059173
5.30833817,0.00334783876
5.31667137,0.00261072768
5.32500458,0.00194703951
5.33333778,0.00121689111
5.34167099,0.000558076252
5.3500042,-0.000169281731
5.3583374,0.00021437541
5.36667061,0.000667759334
5.37500381,0.0010526604
5.38333702,0.00150854455
5.39167023,0.000855447783
5.40000343,0.00013425338
5.40833664,0.000524528383
5.41666985,0.000984994462
5.42500305,0.000335693738
5.43333626,-0.000382484286
5.44166946,1.00322686e-05
5.45000267,0.000471968437
5.45833588,-0.000176631846
5.46666908,-0.000894877536
5.47500229,-0.000503197021
5.48333549,-4.28662242e-05
5.4916687,0.000347915746
5.50000191,0.000808624201
5.50833511,0.000159301126
5.51666832,-0.000559163513
5.52500153,-0.000167198523
5.53333473,0.000293920399
5.54166794,-0.000355763856
5.55000114,-0.00107536209
5.55833435,-0.000685304636
5.56666756,-0.000226869728
5.57500076,0.000161740783
5.58333397,0.000619998726
5.59166718,-3.20575055e-05
5.60000038,-0.000753542117
5.60833359,-0.000364888227
5.61666679,9.26238426e-05
5.625,0.000480790506
5.63333321,0.000939082995
5.64166641,0.000287539908
5.64999962,-0.000432952511
5.65833282,-4.28257445e-05
5.66666603,0.000416641647
5.67499924,-0.000234510109
5.68333244,-0.000955393654
5.69166565,-0.000566441508
5.69999886,-0.00010893352
5.70833206,0.000278926949
5.71666527,0.000736610615
5.72499847,8.41550282e-05
5.73333168,-0.00063755468
5.74166489,-0.000248951837
5.74999809,0.000208682846
5.7583313,0.00059714599
5.76666451,0.0010559092
5.77499771,0.000405012193
5.78333092,-0.000314658071
5.79166412,7.64680808e-05
5.79999733,0.000537113694
5.80833054,-0.000112679438
5.81666374,-0.000832021877
5.82499695,-0.000441343756
5.83333015,1.80776715e-05
5.84166336,0.000408041815
5.84999657,0.000868022675
5.85832977,0.000218061119
5.86666298,-0.000500953989
5.87499619,-0.000109452129
5.88332939,0.000351290422
5.8916626,-0.000298684288
5.8999958,-0.00101848703
5.90832901,-0.000628549198
5.91666222,-0.000170148574
5.92499542,0.000218512709
5.93332863,0.000676906726
5.94166183,2.50719604e-05
5.94999504,-0.000696105359
5.95832825,-0.000307058013
5.96666145,0.000150933978
5.97499466,0.000539667904
5.98332787,0.000998615753
5.99166107,0.000347817142
5.99999428,-0.000371840346
6.00832748,1.92128755e-05
6.01666069,0.000479699782
6.0249939,-0.000170338055
6.0333271,-0.000890011666
6.04166031,-0.000499751652
6.04999352,-4.08360138e-05
6.05832672,0.000348534057
6.06665993,0.000807831471
6.07499313,0.000157096423
6.08332634,-0.000562783564
6.09165955,-0.000172239015
6.09999275,0.000287452101
6.10832596,-0.000363669649
6.11665916,-0.00108471699
6.12499237,-0.000696122472
6.13332558,-0.000239166751
6.14165878,0.000147946295
6.14999199,0.000604686327
6.1583252,-4.89106387e-05
6.1666584,-0.000771961058
6.17499161,-0.000384900457
6.18332481,7.09882588e-05
6.19165802,0.000457499234
6.19999123,0.000914101372
6.20832443,0.000260830595
6.21665764,-0.000461429358
6.22499084,-7.3112642e-05
6.23332405,0.000384499523
6.24165726,0.000773203792
6.24999046,0.00123247225
6.25832367,0.000582344946
6.26665688,-0.000136289615
6.27499008,0.000256139552
6.28332329,0.000718357216
6.29165649,7.04079794e-05
6.2999897,-0.000646816217
6.30832291,-0.000253742153
6.31665611,0.00020835601
6.32498932,-0.000440477481
6.33332253,-0.00115935213
6.34165573,-0.000768697239
6.34998894,-0.000309789932
6.35832214,7.91687344e-05
6.36665535,0.000537651067
6.37498856,-0.000114304261
6.38332176,-0.000835811312
6.39165497,-0.000447303231
6.39998817,9.93915091e-06
6.40832138,0.000397712138
6.41665459,0.000855486433
6.42498779,0.000203299831
6.433321,-0.000517962326
6.44165421,-0.000128732674
6.44998741,0.000329708942
6.45832062,0.000719160482
6.46665382,0.00117909512
6.47498703,0.000529554207
6.48332024,-0.000188573482
6.49165344,0.000204284064
6.49998665,0.0006668524
6.50831985,1.91765721e-05
6.51665306,-0.000697851065
6.52498627,-0.000304657151
6.53331947,0.000157484697
6.54165268,-0.00049138139
6.54998589,-0.00121036486
6.55831909,-0.000819895067
6.5666523,-0.000361249637
6.5749855,2.73699952e-05
6.58331871,0.000485435652
6.59165192,-0.000167014514
6.59998512,-0.000889095361
6.60831833,-0.000501240953
6.61665154,-4.47327475e-05
6.62498474,0.000342224288
6.63331795,0.000799099565
6.64165115,0.000145929371
6.64998436,-0.000576402061
6.65831757,-0.000188329243
6.66665077,0.00026886625
6.67498398,0.000656980497
6.68331718,0.00111548463
6.69165039,0.00046441803
