Time,Theta,ThetaDot,X,XDot
0.0083333333333333332,0.40751747624914686,0.070146824763867369,-1.1434736241496514e-05,-0.0029274002610095171
0.016666666666666666,0.40790549975730039,0.019850030212060926,0.00020911581380495469,0.059777815093060183
0.025000000000000001,0.40787461343906745,-0.030404305886526858,0.00095219749213512768,0.12248076150285735
0.033333333333333333,0.40742480819740284,-0.080709089706599804,0.0022178109825933051,0.18518645442038184
0.041666666666666664,0.40655530053132155,-0.13115730324605832,0.004005998778568008,0.24789991497154493
0.049999999999999996,0.40526453128117607,-0.18184216371231002,0.0063168452756555754,0.31062618155739585
0.058333333333333327,0.40355016304760821,-0.2328572823631003,0.0091504769605304515,0.37337032131927866
0.066666666666666666,0.40140907629010081,-0.2842968224424019,0.012507062694534107,0.43613744137603622
0.074999999999999997,0.39883736411420495,-0.33625565580950911,0.016386814089697326,0.4989326997326653
0.083333333333333329,0.39583032576009058,-0.38882951779900604,0.020789985974026395,0.5617613157473903
0.09166666666666666,0.39238245880921874,-0.44211515976948423,0.025716876941880479,0.62462858002772859
0.099999999999999992,0.38848745013082991,-0.49621049869814715,0.031167829984111297,0.68753986360541941
0.10833333333333332,0.3841381655957653,-0.55121476305477479,0.037143233191289281,0.75050062621468672
0.11666666666666665,0.37932663859209154,-0.60722863403951433,0.043643520521761785,0.81351642346770559
0.12499999999999999,0.37404405738529817,-0.66435438109182676,0.050669172624433566,0.87659291268478157
0.13333333333333333,0.36828075137573524,-0.72269599036946019,0.058220717703976313,0.93973585709397578
0.14166666666666666,0.36298649137925848,-0.53636407152641974,0.065784444756779054,0.87127524817224644
0.14999999999999999,0.35828084460784393,-0.59694933697940822,0.073292006059681405,0.93450052960127217
0.15833333333333333,0.3530661433376942,-0.65862363504295218,0.081326675642979629,0.99778602291959462
0.16666666666666666,0.34733287686272019,-0.72149872751363209,0.08988897948336988,1.0611379418558706
0.17499999999999999,0.34203972844254327,-0.5374415326682096,0.098464514583474605,0.99270989654009123
0.18333333333333332,0.33730741965141153,-0.6025539754077327,0.10698485855586352,1.0561470775845192
0.19166666666666665,0.3320283140437974,-0.66876084610321052,0.11603407983163549,1.1196453656316265
0.19999999999999998,0.32619282653206561,-0.73618141773434143,0.12561271353626574,1.1832114032475478
0.20833333333333331,0.32076794461710006,-0.55453254378364514,0.13520570033818616,1.1148283432133135
0.21666666666666665,0.31587528828466982,-0.62423839790368973,0.1447445515824359,1.1784844051739187
0.22499999999999998,0.31039743121190294,-0.69507211815885372,0.15481411287558891,1.2422038841854184
0.23333333333333331,0.30432448086643532,-0.76716032943669699,0.16541494017622765,1.3059938234832116
0.24166666666666664,0.29863129113823011,-0.58812061043103481,0.1760313409071089,1.2376696278684953
0.24999999999999997,0.29344014049232181,-0.66259674145768754,0.18659476846866893,1.301556448642732
0.2583333333333333,0.28762380089400208,-0.7382624253083544,0.19769084342326904,1.3655104276978651
0.26666666666666666,0.28216352415418611,-0.56124543741412403,0.2088033784126454,1.2972286234717332
0.27500000000000002,0.27718273977249641,-0.63919243715120755,0.21986376497852489,1.3612772833110143
0.28333333333333338,0.27154803566962837,-0.71828051411274718,0.23145813749624006,1.4253905693113751
0.29166666666666674,0.26624642070479521,-0.54327481848335835,0.24306985828866653,1.3571567000562668
0.3000000000000001,0.2614022940265861,-0.62456851328241914,0.25463026384021142,1.4213633197544069
0.30833333333333346,0.25587648997159751,-0.70697053123493059,0.26672596458662012,1.4856327986044715
0.31666666666666682,0.25066123652618394,-0.53398610042701866,0.27883990967422534,1.4174521963576325
0.32500000000000018,0.24588173635399416,-0.6185477950843713,0.29090338703453367,1.4818146058445403
0.33333333333333354,0.24039339763228376,-0.70420018681315777,0.30350345370612991,1.5462388586677973
0.3416666666666669,0.23519321423770692,-0.53327114588757352,0.31612267663554727,1.4781170238059425
0.35000000000000026,0.23040703824572895,-0.6210661628061348,0.32869230145334222,1.5426348151332792
0.35833333333333361,0.22488509400224033,-0.70994892542585519,0.34179980917664471,1.6072141643422151
0.36666666666666697,0.21962875592024467,-0.54113636038225721,0.3549274104669532,1.5391571010250198
0.37500000000000033,0.2147643803415695,-0.63217298493851981,0.36800631472719281,1.6038316573340028
0.38333333333333369,0.20913718155640212,-0.72430875093728797,0.38162440978504347,1.6685681887044164
0.39166666666666705,0.20375258100287968,-0.55770374360164188,0.3952635719569183,1.600582713777184
0.40000000000000041,0.19873730012409171,-0.65203253237880887,0.40885498040879936,1.6654172169339587
0.40833333333333377,0.19293166445671517,-0.74748598116748743,0.42298691669857669,1.7303147782278974
0.41666666666666713,0.18734484478057425,-0.58321301789663105,0.43714094187497132,1.6624088174342615
0.42500000000000049,0.18210379151930006,-0.68092640366266421,0.4512482108874652,1.7274082311410888
0.43333333333333385,0.17706563175563614,-0.51817915066368392,0.46537819468134439,1.6595485227195861
0.44166666666666721,0.1723585254155085,-0.61792051586692442,0.47946199272397066,1.7246401635209831
0.45000000000000057,0.16681625664916305,-0.71871169949524549,0.49408844254065959,1.7897900779017695
0.45833333333333393,0.16145430084613274,-0.55825912675017431,0.50873860162206463,1.7220146192855981
0.46666666666666728,0.15640076642566503,-0.66119303926599315,0.52334355869009874,1.7872624683738962
0.47500000000000064,0.15151212625561716,-0.50226814045301238,0.53797285384779747,1.7195381946316117
0.483333333333334,0.14691752441942579,-0.60714517953050173,0.5525575271907377,1.7848754441284083
0.49166666666666736,0.14144510234120203,-0.7130373727713778,0.56768688817417667,1.8502682083670721
0.50000000000000067,0.13611537506448612,-0.55644427275090014,0.58284158154938903,1.7826343656727937
0.50833333333333397,0.13105718763560154,-0.66443826155802022,0.59795264892773947,1.8481240024229981
0.51666666666666727,0.12612623894169703,-0.50942739808342585,0.61308969705752003,1.7805473587388863
0.52500000000000058,0.12145225023364092,-0.61935441981200945,0.62818372566086333,1.8461264959546622
0.53333333333333388,0.11689117894845791,-0.46582554459105968,0.64330434322622476,1.7786049909725659
0.54166666666666718,0.11257354190776506,-0.57753026742336655,0.65838251112278401,1.8442667228180725
0.55000000000000049,0.1073214766631848,-0.69017732370017959,0.67400804968999839,1.909978613441135
0.55833333333333379,0.10216125573340197,-0.53896120573966833,0.68966113589500144,1.8425521110974861
0.5666666666666671,0.097222761160882687,-0.6536025644044301,0.70527274995270917,1.9083564359273482
0.5750000000000004,0.092361008605716985,-0.5039982456476767,0.72091256438352036,1.8409930496680837
0.5833333333333337,0.087706537325034736,-0.62050623727890364,0.73651152736260495,1.9068840382988976
0.59166666666666701,0.083114558538279537,-0.47243934652161451,0.7521393118968368,1.8395821278157172
0.60000000000000031,0.078716196831497415,-0.59069901867049113,0.767726837454904,1.9055545124252267
0.60833333333333361,0.074366851907991166,-0.44410109285401667,0.78334377625832197,1.8383124099204171
0.61666666666666692,0.070198167840570896,-0.56400936499060983,0.79892102217923422,1.9043614101679727
0.62500000000000022,0.065026904182883233,-0.68480703289236722,0.81504884643703635,1.9704555297253143
0.63333333333333353,0.059884186960517609,-0.54057434109299929,0.83120702052958428,1.903315335901824
0.64166666666666683,0.054900641615123667,-0.66330301878509368,0.84732647736757427,1.969498513383193
0.65000000000000013,0.049930451144241453,-0.5207754402056991,0.86347695588484363,1.9024299780615519
0.65833333333333344,0.045104635825697709,-0.64535618650179305,0.87958936949149613,1.9686984049317064
0.66666666666666674,0.040277473730566532,-0.50449733202312519,0.89573345796058512,1.9017010070481879
0.67500000000000004,0.035580314219688589,-0.63086318096348515,0.91184011840927481,1.9680513729015032
0.68333333333333335,0.030867511724900432,-0.49164479986048171,0.92797909116790711,1.9011247877048316
0.69166666666666665,0.026270682607495752,-0.61974016513094432,0.94408126012119697,1.9675542592474788
0.69999999999999996,0.0216442370445376,-0.48214236004980282,0.96021636609723615,1.9006984003852339
0.70833333333333326,0.017119999360874754,-0.61192250569703133,0.97631528268268386,1.9672045993622211
0.71666666666666656,0.012552413292329926,-0.47593394916596671,0.99244775131706353,1.900419655181985
0.72499999999999987,0.0080734545509168719,-0.60736452174631217,1.0085446381188974,1.9670006355765675
0.73333333333333317,0.0035375769449385508,-0.47298268499923185,1.0246756853834076,1.9002871010772351
0.74166666666666647,-0.00092314709313948595,-0.60603930179558296,1.0407717545081618,1.9669413256683601
0.74999999999999978,-0.0054542782452334047,-0.47327070535166887,1.056902588981113,1.9003000312588862
0.75833333333333308,-0.0088819711108159231,-0.34122688654450783,1.0724782138683893,1.833691684903195
0.76666666666666639,-0.012253196335343093,-0.47641485483254098,1.0880197019466771,1.9004416597058014
0.77499999999999969,-0.015711910317904865,-0.34560667506115683,1.1035967257524242,1.8338894486440924
0.78333333333333299,-0.019124379414437551,-0.48201002620508937,1.1191400738105219,1.9006936240764996
0.7916666666666663,-0.022634623561007192,-0.35245963202637542,1.1347194207363958,1.8341987924714356
0.7999999999999996,-0.026108983709535037,-0.49008854931182283,1.1502655589060908,1.9010572648247486
0.8083333333333329,-0.029691566552641175,-0.36182581242624751,1.1658481656331388,1.834621394718126
0.81666666666666621,-0.033248825232727472,-0.50069725461193648,1.1813980390422136,1.9015345160114931
0.82499999999999951,-0.036924976778635175,-0.37376007056090499,1.1969848597405508,1.8351595436067012
0.83333333333333282,-0.040586624783746472,-0.51389769319770173,1.2125394335318735,1.9021279051378954
0.84166666666666612,-0.044378120524864124,-0.38833232928108607,1.2281314448723457,1.8358161379841196
0.84999999999999942,-0.048166257287399136,-0.5297664226267661,1.2436917092221929,1.902840552015467
0.85833333333333273,-0.052095544802235418,-0.40562791886166183,1.2592899153820378,1.8365946870969743
0.86666666666666603,-0.054993019573726702,-0.28214004779358998,1.2743362052330875,1.7703811176974567
0.87499999999999933,-0.057903163735970264,-0.42532398989515269,1.2893514834537583,1.8374825973852222
0.88333333333333264,-0.0609690752262637,-0.3029437945830103,1.3044053724778526,1.7713205572393109
0.89166666666666594,-0.06405658061194619,-0.44715548874055588,1.3194286494504353,1.8384656791027372
0.89999999999999925,-0.067309001814181743,-0.32595476865884399,1.3344909438458368,1.7723585632523438
0.90833333333333255,-0.070592478420534968,-0.47125003753321976,1.3495230484838812,1.8395492533482383
0.91666666666666585,-0.07405057637514792,-0.35130846040701791,1.3645946001698115,1.7735008132771108
0.92499999999999916,-0.076511540981565998,-0.23194240505475672,1.3791158700645063,1.7074818805476271
0.93333333333333246,-0.079017464350217337,-0.37872008351773456,1.3936075905641847,1.7747368679477109
0.94166666666666576,-0.081710615231955053,-0.26032387914261035,1.4081393364481181,1.708763326232805
0.94999999999999907,-0.084456465698635907,-0.40798217054393188,1.4226418767990487,1.7760546074123005
0.95833333333333237,-0.08739759344265817,-0.29065118994665984,1.4371847966410822,1.7101309153644373
0.96666666666666567,-0.090399881995081866,-0.43926610245545672,1.4516988853710466,1.7774612116086619
0.97499999999999898,-0.093606233596721711,-0.32310301240595785,1.4662537382266836,1.7115921530535616
0.98333333333333228,-0.095846791785071273,-0.20747818759290984,1.4802597993853222,1.6457513609919943
0.99166666666666559,-0.098161265184276883,-0.35742774238405106,1.4942376168026437,1.7131384828383096
0.99999999999999889,-0.10069136858645411,-0.24271074048063096,1.508256728141492,1.6473402652409368
1.0083333333333322,-0.10330257284459707,-0.3934685176861687,1.522247911516506,1.7147596048368701
1.0166666666666655,-0.10613698010197768,-0.27977727622237375,1.5362807175898043,1.6490094502887369
1.0249999999999988,-0.10802593217887513,-0.16655793774508715,1.5497657106336236,1.5832844236207488
1.0333333333333321,-0.11000705365350606,-0.31845556074464876,1.5632232848879015,1.6507516491530676
1.0416666666666654,-0.11222134361314869,-0.20602064786424756,1.5767229375499419,1.5850634272535247
1.0499999999999987,-0.11453400420182079,-0.35861401385067188,1.5901954419038058,1.6525577714131618
1.058333333333332,-0.11708647866334394,-0.24709512229454572,1.6037103106636437,1.5869124786671609
1.0666666666666653,-0.11974451284278852,-0.40048761742754935,1.6171983432573556,1.6544376107740231
1.0749999999999986,-0.12265000137568713,-0.2900227727822503,1.6307290672334875,1.5888416394135949
1.0833333333333319,-0.12463700632287478,-0.18005214504552414,1.6437132692267993,1.5232723835713706
1.0916666666666652,-0.12674093339552611,-0.33460239531928354,1.6566711555130411,1.5908450677321846
1.0999999999999985,-0.1291026644534366,-0.22547195689893487,1.6696722034621079,1.5253151410685346
1.1083333333333318,-0.13055661795464196,-0.11672990887942636,1.6821272580030207,1.4598063387857634
1.1166666666666651,-0.13213640924678199,-0.2721742129362662,1.6945564046273276,1.527415450382978
1.1249999999999984,-0.13398197630879349,-0.16406781598949083,1.7070290749358568,1.4619363988707434
1.1333333333333317,-0.13595840357500596,-0.32007381246034527,1.7194760524844515,1.5295663388624408
1.1416666666666651,-0.13820617833923865,-0.21276130787423345,1.7319667886457,1.4641243881656043
1.1499999999999984,-0.13956124868010214,-0.10581798544676484,1.7439122609959268,1.3987026601858907
1.1583333333333317,-0.14105557045882136,-0.26265801713830861,1.7558324230681839,1.466366096670344
1.166666666666665,-0.14282874968284096,-0.1563193304886894,1.7677966833769603,1.4009726086234435
1.1749999999999983,-0.14474595420647063,-0.31369213338430052,1.7797358361485358,1.4686553454596343
1.1833333333333316,-0.14694738019157891,-0.20812737002272488,1.7917193111234635,1.4032979446091713
1.1916666666666649,-0.14827064173698701,-0.1029258464342961,1.8031582260537355,1.3379605644068917
1.1999999999999982,-0.14974609802700278,-0.26110518545038558,1.8145724043777078,1.4056752062445976
1.2083333333333315,-0.1515131211304423,-0.15650335693776815,1.826031235455692,1.3403657620542835
1.2166666666666648,-0.15240966523349175,-0.052178128299762781,1.8369458876636549,1.2750716094456296
1.2249999999999981,-0.15346462618581203,-0.21096123879566431,1.8478360850492861,1.3428099523714405
1.2333333333333314,-0.15481661174425801,-0.10706869818473289,1.8587711805718119,1.2775359328926268
1.2416666666666647,-0.15633049671598617,-0.26624829896675206,1.8696819672741471,1.3452881607697611
1.249999999999998,-0.15814555192360291,-0.16297270120757598,1.8806378228632583,1.2800428133542809
1.2583333333333313,-0.15910122586485054,-0.059985707877957622,1.8910500365383247,1.2148134870551912
1.2666666666666646,-0.16022522572510062,-0.2197881025567697,1.9014382314425502,1.2825898485010512
1.2749999999999979,-0.1616560973554538,-0.11726280638039849,1.9118717503439246,1.2173819500157768
1.2833333333333312,-0.16223353696751017,-0.014948604168621062,1.9217619226696541,1.1521857883046169
1.2916666666666645,-0.16298401139999283,-0.17519789906395283,1.9316282881156481,1.2199793485337793
1.2999999999999978,-0.16404539427847287,-0.073195905736823705,1.9415401580984781,1.1547976536878504
1.3083333333333311,-0.1652824037336143,-0.23374966673203507,1.9514283286264205,1.2226015745263872
1.3166666666666644,-0.16683363320662964,-0.13225583544335376,1.9613621385156079,1.1574434143665284
1.3249999999999977,-0.16754012769508012,-0.030999308726814868,1.970753022134033,1.0922984892497765
1.333333333333331,-0.1684274868717856,-0.1920529198306356,1.9801204413903017,1.1601214378055502
1.3416666666666643,-0.16963365683875645,-0.091164436061982698,1.989533704351564,1.094993529886638
1.3499999999999976,-0.16999986187059296,0.0095569118242284472,1.9984042778715929,1.0298749483772203
1.358333333333331,-0.17055063048926608,-0.15184081837780133,2.007251552480795,1.0977109144323789
1.3666666666666643,-0.17142330856238266,-0.051352106625277179,2.0161448087487512,1.0326030664475219
1.3749999999999976,-0.17145908628686346,0.049037712315026391,2.0244955278232664,0.96750072669050302
1.3833333333333309,-0.17168164114473813,-0.112554652630347,2.0328230464754267,1.0353440155675404
1.3916666666666642,-0.17222775903693049,-0.012265116494483905,2.0411966206843082,0.97024627779998462
1.3999999999999975,-0.17296170125744681,-0.17400621167655708,2.0495470372811471,1.0380944996952572
1.4083333333333308,-0.17402104058724391,-0.074023470683508216,2.0579435833445223,0.97301091134310447
1.4166666666666641,-0.1742478481974693,0.025821293024706891,2.06579780295854,0.90793503301425127
1.4249999999999974,-0.17466552147588593,-0.13619792386811266,2.0736290004514641,0.97579366889919128
1.4333333333333307,-0.1754110754401596,-0.0365323673203393,2.0815064377407437,0.91072603251222184
1.441666666666664,-0.17532648887693394,0.06305967098970458,2.0888416673801649,0.84566248891716389
1.4499999999999973,-0.17543441348771244,-0.099097941008352633,2.0961539476780242,0.91352627691852373
1.4583333333333306,-0.17587134322118683,0.00044007034825580254,2.1035125180851284,0.84846518792574266
1.4666666666666639,-0.17547894657902091,0.099968217708840595,2.1103289214257557,0.78340461362328506
1.4749999999999972,-0.17527933479338892,-0.062190562488272996,2.1171223866873223,0.85126841634304407
1.4833333333333305,-0.17540851087702744,0.037407901878355264,2.123962133218388,0.78620455116436616
1.4916666666666638,-0.17573028367788204,-0.12477645748079114,2.1307789337498182,0.85406921411967585
1.4999999999999971,-0.17638148308201454,-0.025318490155237801,2.1376420412571222,0.78901179790944254
1.5083333333333304,-0.17620419632757947,0.074085254793977276,2.1439630220456762,0.72395739123786784
1.5166666666666637,-0.17622073192243212,-0.088195712161291309,2.1502611107565119,0.79182563406865036
1.524999999999997,-0.17656741376479576,0.011190968566019012,2.1566055388797465,0.72677197335382104
1.5333333333333303,-0.17608595780930214,0.11058631624656212,2.1624078577630215,0.66171778515538549
1.5416666666666636,-0.17579819665707438,-0.051655956216306753,2.1681872778574953,0.72958455448308812
1.5499999999999969,-0.17583997621505634,0.047845389171573882,2.1740130114185363,0.66452542787350211
1.5583333333333302,-0.17505241607887731,0.14741849712488428,2.1792965763361556,0.59946222649705583
1.5666666666666635,-0.17445706824813501,-0.014649133870659563,2.1845571750325865,0.66732243637817623
1.5749999999999968,-0.17418932211993263,0.085154214431749448,2.1898640024518823,0.60224855347630324
1.5833333333333302,-0.17411243659239872,-0.076822367879643125,2.1951478081026612,0.67010581124463575
1.5916666666666635,-0.17436264609166849,0.023001637103560107,2.2004778222644634,0.60503093214103443
1.5999999999999968,-0.17378099466302116,0.12285456989626124,2.2052655459362618,0.53995438780852123
1.6083333333333301,-0.17338964784317845,-0.039039399215326467,2.2100302218754369,0.60780851584419615
1.6166666666666634,-0.17332435444904876,0.060961211210971304,2.2148410610993956,0.54272510154582609
1.6249999999999967,-0.17242547376719961,0.1610559791358388,2.2191095244054937,0.47763636019132255
1.63333333333333,-0.17171493871568944,-0.00061403247009308298,2.2233548510264423,0.54548203597860645
1.6416666666666633,-0.17132803229769122,0.099757130240274258,2.2276462345711776,0.48038046646294813
1.6499999999999966,-0.17112777615930702,-0.061786322476366382,2.2319144115862599,0.54822198587090043
1.6583333333333299,-0.17125029139068551,0.038655189676344043,2.236228611093575,0.48311711974867594
