Time,Theta
0.0083333333333333332,-0.17465456354098599
0.016666666666666666,-0.17452445423637963
0.025000000000000001,-0.1735627937987744
0.033333333333333333,-0.17176801679857079
0.041666666666666664,-0.17016072012718284
0.049999999999999996,-0.16887478813335566
0.058333333333333327,-0.16674783778471575
0.066666666666666666,-0.16480097395051041
0.074999999999999997,-0.16316768716638166
0.083333333333333329,-0.16068378334098557
0.09166666666666666,-0.1583710159424308
0.099999999999999992,-0.15636246569443446
0.10833333333333332,-0.15451860292565603
0.11666666666666665,-0.15297336336443818
0.12499999999999999,-0.15056040317413341
0.13333333333333333,-0.14830355638205417
0.14166666666666666,-0.14633625912548803
0.14999999999999999,-0.14451876029195151
0.15833333333333333,-0.14298529395797832
0.16666666666666666,-0.14056744654382419
0.17499999999999999,-0.13829086170666205
0.18333333333333332,-0.13628919280709348
0.19166666666666665,-0.13442238297105757
0.19999999999999998,-0.13282483039571735
0.20833333333333331,-0.13032605099342745
0.21666666666666665,-0.12795329453761625
0.22499999999999998,-0.12584030200163535
0.23333333333333331,-0.12384661293704992
0.24166666666666664,-0.1221066613558995
0.24999999999999997,-0.11944782746669858
0.2583333333333333,-0.11689880916295414
0.26666666666666666,-0.11459330751490111
0.27500000000000002,-0.11239034535025633
0.28333333333333338,-0.1104242636103822
0.29166666666666674,-0.10855446326342998
0.3000000000000001,-0.10691588703854772
0.30833333333333346,-0.10433359116425436
0.31666666666666682,-0.10183852915963992
0.32500000000000018,-0.099564783844693694
0.33333333333333354,-0.097371114508070289
0.3416666666666669,-0.095392159108153796
0.35000000000000026,-0.093487009763663406
0.35833333333333361,-0.091790824854830866
0.36666666666666697,-0.089126442256069374
0.37500000000000033,-0.0865265477939198
0.38333333333333369,-0.084125324902975918
0.39166666666666705,-0.0817810781194898
0.40000000000000041,-0.079628465390780528
0.40833333333333377,-0.077526069396876882
0.41666666666666713,-0.075608988930899387
0.42500000000000049,-0.073736079412947186
0.43333333333333385,-0.072042850675170703
0.44166666666666721,-0.070388425519969419
0.45000000000000057,-0.06890869853058533
0.45833333333333393,-0.066424203180718178
0.46666666666666728,-0.063970160566151152
0.47500000000000064,-0.061681304749138348
0.483333333333334,-0.059415770863221036
0.49166666666666736,-0.057308640064419894
0.50000000000000067,-0.055218255109750196
0.50833333333333397,-0.053280015236519512
0.51666666666666727,-0.051352461110797325
0.52500000000000058,-0.049571283834923402
0.53333333333333388,-0.047795212372139156
0.54166666666666718,-0.046160205995863762
0.55000000000000049,-0.044525172562456652
0.55833333333333379,-0.043026318100403034
0.5666666666666671,-0.0415227202447849
0.5750000000000004,-0.040150812423222278
0.5833333333333337,-0.037729049292693183
0.59166666666666701,-0.035294679783934066
0.60000000000000031,-0.032982761340407882
0.60833333333333361,-0.030651103135387419
0.61666666666666692,-0.028434954480560319
0.62500000000000022,-0.02619223181580644
0.63333333333333353,-0.024058349980485273
0.64166666666666683,-0.021891318292678579
0.65000000000000013,-0.01982669229921059
0.65833333333333344,-0.017722559769784128
0.66666666666666674,-0.015714593431281662
0.67500000000000004,-0.013660945053894386
0.68333333333333335,-0.011697382099152368
0.69166666666666665,-0.0096821058624028539
0.69999999999999996,-0.0077509569798190911
0.70833333333333326,-0.0057621717618151795
0.71666666666666656,-0.0038516431599042462
0.72499999999999987,-0.0018776279352537132
0.73333333333333317,2.394897886580209e-05
0.74166666666666647,0.0019948250157415261
0.74999999999999978,0.0038990632354725112
0.75833333333333308,0.0058784100242972089
0.76666666666666639,0.0077969362137902338
0.77499999999999969,0.0097964120517389074
0.78333333333333299,0.011740935879656455
0.7916666666666663,0.013772316905623527
0.7999999999999996,0.014713069040352062
0.8083333333333329,0.015606347274585802
0.81666666666666621,0.016592369812902748
0.82499999999999951,0.017533731823225322
0.83333333333333282,0.018570720213805032
0.84166666666666612,0.019566009426922534
0.84999999999999942,0.020659963187463083
0.85833333333333273,0.0217153447958949
0.86666666666666603,0.022872603293042953
0.87499999999999933,0.023994601013598318
0.88333333333333264,0.025221881236338482
0.89166666666666594,0.026417416170076022
0.89999999999999925,0.027721852712742825
0.90833333333333255,0.028998284528018069
0.91666666666666585,0.030387472009714499
0.92499999999999916,0.031752642680933724
0.93333333333333246,0.033234680839450303
0.94166666666666576,0.034696961185804336
0.94999999999999907,0.036280502896021694
0.95833333333333237,0.03680792172205518
0.96666666666666567,0.037321051852669242
0.97499999999999898,0.037959447629717848
0.98333333333333228,0.038585269599206357
0.99166666666666559,0.03933823703297501
0.99999999999999889,0.040080685793695371
1.0083333333333322,0.040952504620337268
1.0166666666666655,0.041816212308926591
1.0249999999999988,0.042811872512699738
1.0333333333333321,0.04380219574893545
1.0416666666666654,0.04492742694533676
1.0499999999999987,0.046050478372563423
1.058333333333332,0.047311783510654057
1.0666666666666653,0.048574467741943968
1.0749999999999986,0.04997916129954344
1.0833333333333319,0.050349035569968892
1.0916666666666652,0.050724952340931322
1.0999999999999985,0.051246159992589919
1.1083333333333318,0.051774737754454563
1.1166666666666651,0.052450160554362718
1.1249999999999984,0.053134740546131862
1.1333333333333317,0.053968181771065535
1.1416666666666651,0.054813037178057168
1.1499999999999984,0.055809243756108559
1.1583333333333317,0.056819604611176092
1.166666666666665,0.057984294755133975
1.1749999999999983,0.05812673531851921
1.1833333333333316,0.058286910612158953
1.1916666666666649,0.058603667938919753
1.1999999999999982,0.058938854281550955
1.2083333333333315,0.059431581333822356
1.2166666666666648,0.059943957319347624
1.2249999999999981,0.060615358332756095
1.2333333333333314,0.061308160844956751
1.2416666666666647,0.062162006898657765
1.249999999999998,0.063039549805043338
1.2583333333333313,0.06408070058534622
1.2666666666666646,0.064109219485295452
1.2749999999999979,0.06416445767303601
1.2833333333333312,0.064385039778224518
1.2916666666666645,0.064632731379865235
1.2999999999999978,0.065046450595072039
1.3083333333333311,0.065488246905333503
1.3166666666666644,0.066097330399923993
1.3249999999999977,0.066736041457489043
1.333333333333331,0.067543882359162435
1.3416666666666643,0.067344591447636576
1.3499999999999976,0.067176897761885554
1.358333333333331,0.067179046506251727
1.3666666666666643,0.06721252016274748
1.3749999999999976,0.067415875993034571
1.3833333333333309,0.067650887113470393
1.3916666666666642,0.068056418892476045
1.3999999999999975,0.068494540754910169
1.4083333333333308,0.069104424143911242
1.4166666666666641,0.068709667948626596
1.4249999999999974,0.068348578434038493
1.4333333333333307,0.068159086742802161
1.441666666666664,0.068002412182880639
1.4499999999999973,0.068016807601370743
1.4583333333333306,0.068063782337337231
1.4666666666666639,0.068281904967720908
1.4749999999999972,0.068532979229166097
1.4833333333333305,0.068955885496585795
1.4916666666666638,0.069412727799749607
1.4999999999999971,0.070042696316149608
1.5083333333333304,0.069669510878366592
1.5166666666666637,0.069331428527487943
1.524999999999997,0.069166404558916136
1.5333333333333303,0.069035704865545902
1.5416666666666636,0.069077610658245234
1.5499999999999969,0.069153682576447439
1.5583333333333302,0.069402521892801869
1.5666666666666635,0.069685988701364596
1.5749999999999968,0.070143000543624781
1.5833333333333302,0.069597034844276331
1.5916666666666635,0.069086083578059579
1.5999999999999968,0.068747836176518792
1.6083333333333301,0.068443306080421942
1.6166666666666634,0.068310511229389803
1.6249999999999967,0.068210753747397296
1.63333333333333,0.068282372521996412
1.6416666666666633,0.068386961722943077
1.6499999999999966,0.068663175761192741
1.6583333333333299,0.067934083864764142
1.6666666666666632,0.067237533943103708
1.6749999999999965,0.066710948927141217
1.6833333333333298,0.066215049151771913
1.6916666666666631,0.065887581107684876
1.6999999999999964,0.065589540857964646
1.7083333333333297,0.065458989190365691
1.716666666666663,0.065357199577175715
1.7249999999999963,0.065422540004131655
1.7333333333333296,0.065516564340743433
1.7416666666666629,0.065777942712174742
1.7499999999999962,0.065029449760810279
1.7583333333333295,0.064309145601635739
1.7666666666666628,0.063754450148351377
1.7749999999999961,0.063226009904264094
1.7833333333333294,0.062861554499744773
1.7916666666666627,0.062521993692616892
1.799999999999996,0.062345357626625832
1.8083333333333294,0.062192820324377576
1.8166666666666627,0.062202705319108882
1.824999999999996,0.061197097270744114
1.8333333333333293,0.06021395842493988
1.8416666666666626,0.05939034667913879
1.8499999999999959,0.058586474639908286
1.8583333333333292,0.057939695072538835
1.8666666666666625,0.057310460005303626
1.8749999999999958,0.056836405497749161
1.8833333333333291,0.056378221451390806
1.8916666666666624,0.056073817697666568
1.8999999999999957,0.055784121479737374
1.908333333333329,0.055647308803828212
1.9166666666666623,0.05552454481459463
1.9249999999999956,0.055554265912186908
1.9333333333333289,0.05455803404316209
1.9416666666666622,0.053574311305025366
1.9499999999999955,0.052740223150646991
1.9583333333333288,0.051915899767994232
1.9666666666666621,0.051238728482912457
1.9749999999999954,0.050569052472327451
1.9833333333333287,0.050044509947378274
1.991666666666662,0.049525654467825968
1.9999999999999953,0.04915036596336899
2.0083333333333289,0.048779406676715376
2.0166666666666622,0.04855089079843275
2.0249999999999955,0.048325788514666894
2.0333333333333288,0.04824244243174327
2.0416666666666621,0.047121713322822507
2.0499999999999954,0.046002348660397305
2.0583333333333287,0.045021334544101198
2.066666666666662,0.044038518726938529
2.0749999999999953,0.043191113792083603
2.0833333333333286,0.042339146884115803
2.0916666666666619,0.041620045205537762
2.0999999999999952,0.040894010615840019
2.1083333333333285,0.040298674669736453
2.1166666666666618,0.039694409975182518
2.1249999999999951,0.03921904365981372
2.1333333333333284,0.038733115854863359
2.1416666666666617,0.038374641874562215
2.149999999999995,0.038004326917551845
2.1583333333333283,0.037760368409410799
2.1666666666666616,0.037503634956124715
2.1749999999999949,0.037372501260273236
2.1833333333333282,0.03722799849707599
2.1916666666666615,0.037208674993055899
2.1999999999999948,0.036134821649585723
2.2083333333333282,0.035045840209929166
2.2166666666666615,0.034078848095635293
2.2249999999999948,0.033093631643296345
2.2333333333333281,0.032227479853520195
2.2416666666666614,0.031340315164485461
2.2499999999999947,0.030569587280656903
2.258333333333328,0.029775348867551038
2.2666666666666613,0.029095200654820037
2.2749999999999946,0.028389320197721724
2.2833333333333279,0.027795450677745321
2.2916666666666612,0.027173889744050054
2.2999999999999945,0.026662515481662472
2.3083333333333278,0.026121741382551474
2.3166666666666611,0.025689573841631605
2.3249999999999944,0.025226538489069146
2.3333333333333277,0.024870764329187001
2.341666666666661,0.024482885973409033
2.3499999999999943,0.024201150174760766
2.3583333333333276,0.023886297917927214
2.3666666666666609,0.023676689637659284
2.3749999999999942,0.023433170634728669
2.3833333333333275,0.023294211713023542
2.3916666666666608,0.023120760985997024
2.3999999999999941,0.023051397035275565
2.4083333333333274,0.022947169841781634
2.4166666666666607,0.022946763867111825
2.424999999999994,0.021869895086952584
2.4333333333333274,0.020756491292980593
2.4416666666666607,0.019743713703212606
2.449999999999994,0.018691204468672239
2.4583333333333273,0.017736226109454575
2.4666666666666606,0.016738498373755691
2.4749999999999939,0.015835374491801443
2.4833333333333272,0.014886644265145587
2.4916666666666605,0.014029741732409126
2.4999999999999938,0.013124519477781092
2.5083333333333271,0.012308483056526124
2.5166666666666604,0.011441540816626232
2.5249999999999937,0.010661261074424092
2.533333333333327,0.0098276011518318527
2.5416666666666603,0.0090781838386922199
2.5499999999999936,0.0082730088457358929
2.5583333333333269,0.007549745553368307
2.5666666666666602,0.0067684296555038425
2.5749999999999935,0.0060667695856405496
2.5833333333333268,0.0053048307686117896
2.5916666666666601,0.0046203534433886251
2.5999999999999934,0.0038734266400496397
2.6083333333333267,0.0032018153926451952
2.61666666666666,0.0024656263100777181
2.6249999999999933,0.0018026423981567978
2.6333333333333266,0.001072981889617275
2.6416666666666599,0.0004144390776189724
2.6499999999999932,-0.00031286209309392386
2.6583333333333266,-0.00097112263413394603
2.6666666666666599,-0.0017002187860834541
2.6749999999999932,-0.0023623534106773361
2.6833333333333265,-0.0030974088457742773
2.6916666666666598,-0.0037675963466197687
2.6999999999999931,-0.0045128103044489902
2.7083333333333264,-0.0051952769539462765
2.7166666666666597,-0.005954908769972578
2.724999999999993,-0.0066539536396968101
2.7333333333333263,-0.0074323482564989905
2.7416666666666596,-0.0081523689652296116
2.7499999999999929,-0.0089539829483537472
2.7583333333333262,-0.0096995019916223165
2.7666666666666595,-0.010528930204423925
2.7749999999999928,-0.011304622021743217
2.7833333333333261,-0.012166625117207357
2.7916666666666594,-0.011935678926946471
2.7999999999999927,-0.011653210763320165
2.808333333333326,-0.011457670873597314
2.8166666666666593,-0.011209888588404163
2.8249999999999926,-0.011048367511977384
2.8333333333333259,-0.010833986820812215
2.8416666666666592,-0.010705301336080728
2.8499999999999925,-0.010523238492300163
2.8583333333333258,-0.01042640251451897
2.8666666666666591,-0.010275767778604684
2.8749999999999925,-0.010209986413282779
2.8833333333333258,-0.010090078685453256
2.8916666666666591,-0.010054743428323598
2.8999999999999924,-0.0099650460122573253
2.9083333333333257,-0.0099597310670192229
2.916666666666659,-0.0098999085392733541
2.9249999999999923,-0.0099243682309576656
2.9333333333333256,-0.0098942643972445461
2.9416666666666589,-0.0099484316655766031
2.9499999999999922,-0.0099480685915319493
2.9583333333333255,-0.010032054555101616
2.9666666666666588,-0.010061632665579176
2.9749999999999921,-0.01017572725400908
2.9833333333333254,-0.010235626501302905
2.9916666666666587,-0.010380300158969917
2.999999999999992,-0.010471082266732967
3.0083333333333253,-0.010646988737980543
3.0166666666666586,-0.010769400534012949
3.0249999999999919,-0.010977380746228895
3.0333333333333252,-0.011132358603786889
3.0416666666666585,-0.011373445671248457
3.0499999999999918,-0.011562121085111737
3.0583333333333251,-0.011837546463154004
3.0666666666666584,-0.012061252793421427
3.0749999999999917,-0.012372453619301655
3.083333333333325,-0.012632734042799482
3.0916666666666583,-0.012981361706647218
3.0999999999999917,-0.013279978422967154
3.108333333333325,-0.013667908419463049
3.1166666666666583,-0.014006853166036825
3.1249999999999916,-0.014436196284990842
3.1333333333333249,-0.014817702223290753
3.1416666666666582,-0.015290817145129105
3.1499999999999915,-0.015717372188097784
3.1583333333333248,-0.016236879558455458
3.1666666666666581,-0.016711241217650136
3.1749999999999914,-0.017280039283838599
3.1833333333333247,-0.017805251123561947
3.191666666666658,-0.018426533024676155
3.1999999999999913,-0.019005942819593311
3.2083333333333246,-0.019683215631472722
3.2166666666666579,-0.019278979275114454
3.2249999999999912,-0.01883425384364356
3.2333333333333245,-0.018487222793624105
3.2416666666666578,-0.018098509104734116
3.2499999999999911,-0.017806383740392177
3.2583333333333244,-0.017471548843601983
3.2666666666666577,-0.01723235913235114
3.274999999999991,-0.016949593463850665
3.2833333333333243,-0.016761687112355952
3.2916666666666576,-0.016529493610508261
3.2999999999999909,-0.016391526116981324
3.3083333333333242,-0.016208711207481383
3.3166666666666575,-0.016119637756312238
3.3249999999999909,-0.015985304153750213
3.3333333333333242,-0.015944373304446417
3.3416666666666575,-0.01585791458763644
3.3499999999999908,-0.015864663720554201
3.3583333333333241,-0.015825760649391382
3.3666666666666574,-0.015880013141067954
3.3749999999999907,-0.01588863169291525
3.383333333333324,-0.015990495803997366
3.3916666666666573,-0.016046886917731901
3.3999999999999906,-0.016196756386591318
3.4083333333333239,-0.016301457412505157
3.4166666666666572,-0.016500013757691223
3.4249999999999905,-0.016653851621496633
3.4333333333333238,-0.016902068166247206
3.4416666666666571,-0.017106164265531975
3.4499999999999904,-0.017405311907699374
3.4583333333333237,-0.017661088769363228
3.466666666666657,-0.018012743530361707
3.4749999999999903,-0.018321933267891825
3.4833333333333236,-0.018727985664686503
3.4916666666666569,-0.019092640284647276
3.4999999999999902,-0.019555306579431674
3.5083333333333235,-0.019977810197299641
3.5166666666666568,-0.020499645590396333
3.5249999999999901,-0.01994123176284332
3.5333333333333234,-0.019343337836774343
3.5416666666666567,-0.018843913115933753
3.5499999999999901,-0.018303356080267764
3.5583333333333234,-0.017859706847406759
3.5666666666666567,-0.017373443171311134
3.57499999999999,-0.016982690715230415
3.5833333333333233,-0.016548002841932502
3.5916666666666566,-0.016207586076724977
3.5999999999999899,-0.015822066109701997
3.6083333333333232,-0.015529726190841106
3.6166666666666565,-0.015191261430718155
3.6249999999999898,-0.014945028178895878
3.6333333333333231,-0.014651788425884625
3.6416666666666564,-0.014449968478439689
3.6499999999999897,-0.014200395025348738
3.658333333333323,-0.01404156164515262
3.6666666666666563,-0.013834357895828299
3.6749999999999896,-0.013717342377170096
3.6833333333333229,-0.013551466034724867
3.6916666666666562,-0.013475350655099728
3.6999999999999895,-0.013350007433497861
3.7083333333333228,-0.013314119909300298
3.7166666666666561,-0.013228758730840359
3.7249999999999894,-0.013232668143838779
3.7333333333333227,-0.013186977793844824
3.741666666666656,-0.013230491964011029
3.7499999999999893,-0.013224399182663406
3.7583333333333226,-0.013307563471496453
3.7666666666666559,-0.013341232471244253
3.7749999999999893,-0.013464330008206555
3.7833333333333226,-0.01353816341365178
3.7916666666666559,-0.013701716746772036
3.7999999999999892,-0.013816357962345498
3.8083333333333225,-0.014021132142483277
3.8166666666666558,-0.014177469161689471
3.8249999999999891,-0.014424476278444724
3.8333333333333224,-0.01462364695698215
3.8416666666666557,-0.014914152152815144
3.849999999999989,-0.015157550976524952
3.8583333333333223,-0.015493079974372614
3.8666666666666556,-0.015782366361776608
3.8749999999999889,-0.016164714550354842
3.8833333333333222,-0.016501822738559001
3.8916666666666555,-0.016933065868671885
3.8999999999999888,-0.016278635518210672
3.9083333333333221,-0.015579239534643366
3.9166666666666554,-0.014972686916992885
3.9249999999999887,-0.014319204772215655
3.933333333333322,-0.013756675578158489
3.9416666666666553,-0.013145388363359782
3.9499999999999886,-0.012623292858051112
3.9583333333333219,-0.012050735233624077
3.9666666666666552,-0.011565726718184781
3.9749999999999885,-0.011028666123800808
3.9833333333333218,-0.010577620849741887
3.9916666666666551,-0.010073038105869569
3.9999999999999885,-0.0096530365234786478
4.0083333333333222,-0.0091781077095073292
4.0166666666666559,-0.0087864169389590269
4.0249999999999897,-0.008338496440400989
4.0333333333333234,-0.0079725538613973149
4.0416666666666572,-0.0075491584853861022
4.0499999999999909,-0.0072065563476157108
4.0583333333333247,-0.0068053504121152976
4.0666666666666584,-0.006483821374767453
4.0749999999999922,-0.0061026026825830642
4.0833333333333259,-0.0058000061965881302
4.0916666666666597,-0.0054366928104486725
