Time,Theta,ThetaDot,X,XDot
0.0083333333333333332,0.2910880715480596,0.051170351642182275,-8.7028070403114126e-06,-0.0022280867976117104
0.016666666666666666,0.29121969328620828,-0.024292099920233318,0.00022230857606486251,0.061663754284167573
0.025000000000000001,0.29072241703289831,-0.099790046203081545,0.00098575464255563796,0.12555766136808999
0.033333333333333333,0.28959541369948721,-0.17546002983020734,0.002281683081727067,0.18946143577534177
0.041666666666666664,0.28783671575155217,-0.25143877166353795,0.0041102066059147584,0.25338288254094282
0.049999999999999996,0.28544321513176779,-0.32786332152881026,0.0064715029943986178,0.31732981356599094
0.058333333333333327,0.2824106599471099,-0.40487120326461218,0.0093658151592620805,0.38131004956789522
0.066666666666666666,0.27873364997805944,-0.48260055141012803,0.012793451220992388,0.44533142025995232
0.074999999999999997,0.27540009653234848,-0.30651247350002925,0.016237799857043982,0.37704344031700965
0.083333333333333329,0.27253719840401514,-0.38562974964585617,0.019630117510606917,0.44112362866407673
0.09166666666666666,0.26901241460967096,-0.46543134974349409,0.023556583816158445,0.50524289257228516
0.099999999999999992,0.26481948756099633,-0.54605945014276291,0.028017555776485896,0.56940926265985292
0.10833333333333332,0.26095004980054326,-0.37179232561683201,0.03249609772098562,0.50117560618078916
0.11666666666666665,0.25753105917732277,-0.45402612105672968,0.036923451457312913,0.56541091068188742
0.12499999999999999,0.25342375355369567,-0.53706235941791169,0.041886272463973889,0.62969197836549562
0.13333333333333333,0.24962350837531366,-0.36427619299609199,0.046867327988216662,0.56149899192919994
0.14166666666666666,0.24625786920019105,-0.44888383729936449,0.051797822578178804,0.62584831627262838
0.14999999999999999,0.24218418575717726,-0.53428103101800972,0.057264731554901985,0.69024265646183147
0.15833333333333333,0.23840129493147685,-0.36298716758137445,0.062750544292547755,0.62209303806525962
0.16666666666666666,0.23503722316470457,-0.44994281787735368,0.068186432495450824,0.68655578433780573
0.17499999999999999,0.23094555065379851,-0.53768599434654663,0.0741596795011122,0.75106337999584238
0.18333333333333332,0.22712834436734713,-0.36791563465806992,0.080152512166551199,0.68296028482551585
0.19166666666666665,0.2237140115772826,-0.45722529024199243,0.086096073517920757,0.74753728832000921
0.19999999999999998,0.21955242970159156,-0.54733114731263321,0.092577947279490522,0.81215954240013555
0.20833333333333331,0.2156487055985449,-0.37913695499275057,0.099080109911243705,0.7441067505723602
0.21666666666666665,0.21213153211496052,-0.47083814945327984,0.10553367975531781,0.8088002923332549
0.22499999999999998,0.20784710680818685,-0.56335485874471869,0.11252653680843423,0.87354004101018601
0.23333333333333331,0.20380341873813598,-0.39681285614674461,0.11954041662386569,0.80554212576821982
0.24166666666666664,0.20012935393593714,-0.49097467372195086,0.12650641676990548,0.87035594674914007
0.24999999999999997,0.19668469460073662,-0.32547922429863041,0.13349387884391012,0.80238788004251471
0.2583333333333333,0.19359953707427802,-0.42103697771380139,0.14043384587534108,0.86726502238357628
0.26666666666666666,0.18971536185734111,-0.51731594181692997,0.14791460834680975,0.93218284685453123
0.27500000000000002,0.1860452874541127,-0.3533391416153161,0.15541750266414239,0.86426836363193849
0.28333333333333338,0.18271939346574839,-0.45109911453442431,0.16287356142148943,0.92925371735696194
0.29166666666666674,0.17857594635991239,-0.54962775324421942,0.17087132689954851,0.99428220055626015
0.3000000000000001,0.17463018642156664,-0.38730324928008319,0.17889194833809915,0.92642762132402379
0.30833333333333346,0.1710121040859266,-0.48741653283252545,0.18686645094065679,0.99152869046013448
0.31666666666666682,0.16758051794111517,-0.32616898530021343,0.19486426271078902,0.92370895409872145
0.32500000000000018,0.16446645387171321,-0.42765452333379611,0.20281636082014345,0.98887323217485124
0.33333333333333354,0.16050398236461408,-0.52986038916427802,0.21131164463687216,1.0540775868666503
0.3416666666666669,0.15671246650133866,-0.3702187765171408,0.21983093331625977,0.98631871584121211
0.35000000000000026,0.1532226624234721,-0.4739336662249789,0.22830520567950205,1.0515927713101267
0.35833333333333361,0.1498929965863218,-0.31535784265062067,0.23680393127071087,0.98387060397910187
0.36666666666666697,0.1468551479524334,-0.42039203241266476,0.24525804547289751,1.0492058644817268
0.37500000000000033,0.14293940211359529,-0.52612619724200327,0.2542567641110231,1.1145796531359742
0.38333333333333369,0.13916854075443436,-0.36916550006108845,0.26328062622588899,1.046920918540732
0.39166666666666705,0.13567381324375305,-0.47638653823545396,0.2722605768950806,1.1123637704260696
0.40000000000000041,0.13231314175111922,-0.32051859084096823,0.28126612850770283,1.0447446568635508
0.40833333333333377,0.12921859532901112,-0.42905856741199844,0.29022818702867681,1.1102489799007842
0.41666666666666713,0.1252169156569759,-0.53830457879942761,0.29973625808448079,1.1757916447519856
0.42500000000000049,0.121333740728492,-0.38412137285355191,0.30927063917309916,1.1082406839191346
0.43333333333333385,0.11770056213064511,-0.49488337848477171,0.31876225339140318,1.1738539834240291
0.44166666666666721,0.11417465824050654,-0.34186197912072691,0.32828065969005776,1.1063470508866511
0.45000000000000057,0.11088824105298878,-0.45399363269224557,0.33775674634688291,1.1720243239339005
0.45833333333333393,0.10769890576191629,-0.30203369506287109,0.34726006600071718,1.1045583484218446
0.46666666666666728,0.10473952816118857,-0.41539826291362386,0.35672147478228294,1.1702933158462092
0.47500000000000064,0.10083295266648973,-0.52943379814954528,0.36673080758737897,1.2360639303237806
0.483333333333334,0.097008469112827428,-0.37915199934572846,0.37676806228878745,1.1686682561952706
0.49166666666666736,0.093398158046815727,-0.49465816355778058,0.38676412356659851,1.2345075241420822
0.50000000000000067,0.089858799292744096,-0.34556539247927437,0.39678859390754873,1.1671592881487132
0.50833333333333397,0.086523048775274433,-0.46242534463754631,0.40677232981186934,1.2330618181831705
0.51666666666666727,0.083247939946082899,-0.31444125491445468,0.41678492837236369,1.1657584622989441
0.52500000000000058,0.080166652551200701,-0.4325474916678837,0.42675722038807096,1.2317192618178618
0.53333333333333388,0.077136466878575394,-0.28559616489756456,0.43675879686352875,1.1644582428783434
0.54166666666666718,0.074291039969921521,-0.40484974620478664,0.44672046515946651,1.230472694246102
0.55000000000000049,0.071487890931204223,-0.25885958588472552,0.45671180972195635,1.163251511745937
0.55833333333333379,0.068861112095806906,-0.37916942132464021,0.4666636165351587,1.2293153480207752
0.5666666666666671,0.06522956403240357,-0.50007298183688764,0.47716606699990882,1.2954094554447333
0.5750000000000004,0.061626769422845395,-0.35567380291020234,0.48769881786820118,1.228257548412298
0.5833333333333337,0.058185711829575576,-0.47792862857481055,0.49819270048561565,1.2944145085186942
0.59166666666666701,0.054762829428753677,-0.33470876712477038,0.50871735528284456,1.2273124961768493
0.60000000000000031,0.051491468682192572,-0.45824024522642398,0.51920359560901552,1.2935287698602198
0.60833333333333361,0.048228227143644782,-0.31615023069298837,0.52972105810614911,1.2264750414036982
0.61666666666666692,0.045106770402750088,-0.44089220823048636,0.54020054028499997,1.2927474709400655
0.62500000000000022,0.041983840398939549,-0.29988807603229556,0.55071167508099705,1.2257405636687009
0.63333333333333353,0.038993381227548571,-0.42578235241108775,0.56118524617802368,1.2920663528892014
0.64166666666666683,0.035992263484284713,-0.28582559537051994,0.57169088301207227,1.225104968346207
0.65000000000000013,0.033114671886537272,-0.41282147089438953,0.58215935732161339,1.2914816638886155
0.65833333333333344,0.030217589381658239,-0.27387899201687621,0.59266029535110742,1.2245646809064623
0.66666666666666674,0.027435405787657515,-0.40193286871459505,0.60312445866106779,1.2909901547214697
0.67500000000000004,0.024625199645944142,-0.26397694051695408,0.61362147069325179,1.2241166401897461
0.68333333333333335,0.021921532370069323,-0.39305197196481872,0.62408208449912728,1.2905890733951415
0.69166666666666665,0.019181560974054258,-0.25606020675594099,0.63457592117133899,1.223758291422868
0.69999999999999996,0.016539986658870978,-0.38612599371148276,0.64503372683751958,1.2902761595342889
0.70833333333333326,0.013854027487536924,-0.25008132860679466,0.65552512074634806,1.2234875795636195
0.71666666666666656,0.011258494040629922,-0.38111365743477998,0.66598084361735077,1.2900496390801379
0.72499999999999987,0.0086106477435533482,-0.24600435740759438,0.67647051340110342,1.2233029434146159
0.73333333333333317,0.0060453792715943339,-0.37798497844250001,0.68692486686891374,1.2899082196970519
0.74166666666666647,0.0034199754837978837,-0.24380466035878515,0.69741352125082823,1.2232033108314586
0.74999999999999978,0.0008693787268152347,-0.37672110349661553,0.70786721078709769,1.2898510871775346
0.75833333333333308,-0.0017491168713781669,-0.24346878382646917,0.71835555258891803,1.2231880952545122
0.76666666666666639,-0.0043005451029447406,-0.377314208763254,0.72880927975256371,1.2898779030448773
0.77499999999999969,-0.0069276229770081337,-0.24499437749699307,0.73929800988954253,1.2232571937129371
0.78333333333333299,-0.0094953878598013648,-0.37976745612274154,0.74975247632141861,1.2899888034732292
0.7916666666666663,-0.01214658655892782,-0.24839017932894158,0.76024229779066144,1.2234109863788643
0.7999999999999996,-0.014746287305813297,-0.38409500783584255,0.77069820920751198,1.2901843995730571
0.8083333333333329,-0.01743728564338479,-0.25367606127170461,0.78118983108180762,1.223650337684149
0.81666666666666621,-0.020084708041100966,-0.39032209953539099,0.79164790128167939,1.2904657790212783
0.82499999999999951,-0.022831418013247624,-0.26088313574670885,0.80214204272069412,1.2239765989476188
0.83333333333333282,-0.025542627945189342,-0.39848517148021828,0.81260299761141874,1.2908345089454913
0.84166666666666612,-0.028361288882722813,-0.2700539229000849,0.82310039190123419,1.2243916123928664
0.84999999999999942,-0.030111498803216667,-0.14205108625101634,0.83304418194272445,1.1579692329304172
0.85833333333333273,-0.031837236451638509,-0.28084962587449541,0.84295529033159866,1.2248807978535068
0.86666666666666603,-0.033679935370661641,-0.15349636906340744,0.85290327353238737,1.1584884446063628
0.87499999999999933,-0.035503501469754596,-0.29292516737782992,0.86281881676521321,1.2254277700607361
0.88333333333333264,-0.037449501772593922,-0.16625952526779025,0.87277148164937801,1.1590672480529625
0.89166666666666594,-0.039382008371861919,-0.30635210224294462,0.88269196157353591,1.22603568560594
0.89999999999999925,-0.041442735923259998,-0.18041653669922986,0.89264982377863311,1.1597090086352082
0.90833333333333255,-0.043495941931685184,-0.32120992422053912,0.90257577078699014,1.2267080374313997
0.91666666666666585,-0.045683503405203212,-0.19605162719281924,0.91253937592151935,1.1604174422396873
0.92499999999999916,-0.047869883801908979,-0.33758650452227978,0.92247135187248541,1.2274486685791748
0.93333333333333246,-0.050197137797703399,-0.21325773566245476,0.93244127849307512,1.1611966303586105
0.94166666666666576,-0.052529956811002046,-0.35557857137337506,0.94237987975239701,1.2282617862125709
0.94999999999999907,-0.05501058911429399,-0.23213703290969845,0.95235674246304503,1.1620510354633271
0.95833333333333237,-0.05646415515227194,-0.10907415250134576,0.96178192961326747,1.0958592400644989
0.96666666666666567,-0.057932797763818718,-0.25239785775363038,0.97117622985271301,1.1629687037909253
0.97499999999999898,-0.059557390090120316,-0.12990049605896103,0.98060916623753869,1.0968033268812183
0.98333333333333228,-0.061201672313297963,-0.27376345942141794,0.99001142316938306,1.163935825666774
0.99166666666666559,-0.063006759965899592,-0.15189919870901403,0.99945253320945171,1.0978000401073258
0.99999999999999889,-0.064836681432012808,-0.29636052233717974,1.0088631947409317,1.1649579694490748
1.0083333333333322,-0.066832805567384329,-0.17520119174461773,1.0183129500319814,1.09885514859415
1.0166666666666655,-0.068859467953224354,-0.32032279999601293,1.0277325124339312,1.1660409772143181
1.0249999999999988,-0.071058302697706702,-0.19994497613367362,1.0371914341134063,1.0999747170605776
1.0333333333333321,-0.072255418769588575,-0.079899216480061916,1.0460998768065226,1.03392546107663
1.0416666666666654,-0.073491311413019608,-0.22587112843901522,1.0549785069825364,1.1011484096069455
1.0499999999999987,-0.074906335835030785,-0.10630829667169425,1.0638968173814853,1.0351218025135789
1.058333333333332,-0.076364076475582368,-0.25274026774276453,1.0727854913401829,1.1023639782717192
1.0666666666666653,-0.078005200431125493,-0.13374593043254041,1.0817140340192082,1.0363640359502635
1.0749999999999986,-0.079693647518340002,-0.28071165742902487,1.0906131457809638,1.1036284026075351
1.0833333333333319,-0.081570404340942565,-0.16237526590381929,1.0995523441696358,1.0376593217556345
1.0916666666666652,-0.082462226949798961,-0.044312950779210533,1.1079418625993656,0.97170446438784219
1.0999999999999985,-0.083408155705126219,-0.19196262691421301,1.1163022632484711,1.038998417520673
1.1083333333333318,-0.084547970255317628,-0.074275117601998605,1.1247030078266429,0.97306116722094427
1.1166666666666651,-0.085744977487623275,-0.22228874939813695,1.1330747719238299,1.0403701024162222
1.1249999999999984,-0.087139318178032651,-0.10507304512831495,1.1414870319556469,0.97445501495522546
1.1333333333333317,-0.088594691447846832,-0.25353342970888276,1.1498704820302763,1.0417822533217802
1.1416666666666651,-0.090251603243472617,-0.13688978384985842,1.1582946130298453,0.97589403399150121
1.1499999999999984,-0.090937531010069281,-0.020480500454119248,1.1661697303773961,0.91001809936150191
1.1583333333333317,-0.091690279836240812,-0.1695128523991572,1.1740163047271406,0.97736986730939657
1.166666666666665,-0.092649209876713254,-0.05340574625258647,1.1819037742133642,0.91150813690747212
1.1749999999999983,-0.093677481880384605,-0.20273930847385144,1.1897628123171193,0.97887213364222658
1.1833333333333316,-0.094914858623655174,-0.087041154655898095,1.1976628737611927,0.91302962542553068
1.1916666666666649,-0.096224923476057531,-0.2367660594988592,1.2055346517455519,0.98040943918928758
1.1999999999999982,-0.097747843058847247,-0.1215864712484705,1.2134476171689215,0.9145912995005383
1.2083333333333315,-0.098311885203663546,-0.0066174264278388061,1.2208121484233749,0.84878428439774023
1.2166666666666648,-0.098953796488007437,-0.15684657717507094,1.2281486348382931,0.91618554577533806
1.2249999999999981,-0.099812650200961806,-0.042138011885810442,1.2355264971719793,0.85039077528868179
1.2333333333333314,-0.10075157314196376,-0.19263324263418602,1.2428764116247033,0.91780269839209838
1.2416666666666647,-0.10191007685215998,-0.078300673304416715,1.2502678170821384,0.85202560238200842
1.249999999999998,-0.10315173819620348,-0.22915836257225719,1.2576314105622333,0.91945198448742893
1.2583333333333313,-0.10461650606606449,-0.11531992699704123,1.2650366485167264,0.85369810933315793
1.2666666666666646,-0.10513353540623323,-0.0016826825615087141,1.2718939862048961,0.78795493835736174
1.2749999999999979,-0.10573863749660159,-0.15301493212081757,1.2787237379638894,0.85540134156649972
1.2833333333333312,-0.10657071408602901,-0.039624806692340434,1.2855953123083175,0.78966978354591133
1.2916666666666645,-0.10749296295796811,-0.19121226755980417,1.2924393928078914,0.85712627874740088
1.2999999999999978,-0.10864475577898529,-0.078193083503770272,1.2993254073618346,0.79141215250251884
1.3083333333333311,-0.10885539962418274,0.034685604328024845,1.3056638403734078,0.72570552285742851
1.3166666666666644,-0.10915972107407826,-0.1172240054776468,1.3119749402815035,0.79317553372670491
1.3249999999999977,-0.10969608658685848,-0.0044755204582076196,1.3183280896124083,0.72747501498203027
1.333333333333331,-0.11032733760114735,-0.15654446087118123,1.3246539586747181,0.79495129051855307
1.3416666666666643,-0.11119233599849171,-0.044053905031510382,1.3310219508834704,0.72926288869027323
1.3499999999999976,-0.1111203708853151,0.068352339658128994,1.3368425642098596,0.66357898401977955
1.358333333333331,-0.11114550592906346,-0.083900129010926666,1.3426359982929685,0.73106291923824052
1.3666666666666643,-0.11140563004568811,0.028484891861356377,1.3484716132643835,0.66537999723385122
1.3749999999999976,-0.11176323337068174,-0.1238381418446924,1.3542800655166174,0.73286670341319704
1.3833333333333309,-0.11235671905111261,-0.011604301466420081,1.3601307372778308,0.66719087705220359
1.3916666666666642,-0.11304905432094539,-0.16410437373378448,1.3659543061436681,0.73468450440228217
1.3999999999999975,-0.11397914790559034,-0.052152717580403934,1.3718201755195276,0.66902193154329581
1.4083333333333308,-0.11397682123900114,0.059701110173766676,1.3771388841391858,0.60336459513549456
1.4166666666666641,-0.11407585018374213,-0.093014285191824822,1.3824306042689045,0.67086718243508547
1.4249999999999974,-0.1144141855777862,0.018789414002193704,1.3877646966004629,0.60521218707110436
1.4333333333333307,-0.11485448031414937,-0.13402118077496164,1.3930718267234081,0.67271848522948663
1.441666666666664,-0.11553521059887022,-0.022401257383536939,1.3984213777275887,0.6070721151090458
1.4499999999999973,-0.11528609259981128,0.089170061715172402,1.4032238926584033,0.54142833373853438
1.4583333333333306,-0.11514031870215774,-0.063736129160033878,1.4079995079864864,0.60893858045098792
1.4666666666666639,-0.11523543185950222,0.047880952551108108,1.4128175657664939,0.54329262978413151
1.4749999999999972,-0.1154337655953854,-0.10504287359925719,1.4176087185084458,0.61080357297345611
1.4833333333333305,-0.11587340205944274,0.0064851623488535069,1.4224423316252708,0.54516179274489962
1.4916666666666638,-0.11538376891150635,0.11801246957390794,1.4267289368297609,0.47952001853556303
1.4999999999999971,-0.11499765754365639,-0.034891153407577244,1.4309886495848902,0.54703008098482842
1.5083333333333304,-0.1148522331250432,0.076776066924830105,1.4352907955325804,0.48138171000019575
1.5166666666666637,-0.11480949102788787,-0.076068590845237954,1.4395660123938165,0.54888949794508224
1.524999999999997,-0.11500714369118448,0.035604019893797127,1.4438836498817456,0.48324085645768899
1.5333333333333303,-0.11530766140550539,-0.11729094216607017,1.4481743661968247,0.55075060856263336
1.5416666666666636,-0.11584929050922971,-0.005747399950487936,1.4525075340279823,0.4851080196176622
1.5499999999999969,-0.1154615999897228,0.10577513738214409,1.4562936914814555,0.4194665308471951
1.5583333333333302,-0.11517753408306404,-0.047148638037825166,1.4600529615062277,0.48697744567725748
1.5666666666666635,-0.11513441605226114,0.064473846794485284,1.4638546765238463,0.42133123945845863
1.5749999999999968,-0.11519438737714874,-0.088423551681691054,1.4676294807355239,0.48884114438927168
1.5833333333333302,-0.11549531572899965,0.023164094511358192,1.4714467303559891,0.42319655952817753
1.5916666666666635,-0.11486636982850143,0.13477864311671539,1.4747169428696167,0.35755049017709783
1.5999999999999968,-0.11434019115274717,-0.018031700859393183,1.4779602283976385,0.42505672575489478
1.6083333333333301,-0.11405373585448342,0.093777550908531807,1.481245903919848,0.35940148325100524
1.6166666666666634,-0.11386878996182677,-0.058928827060622815,1.4845045975628515,0.42690369252680355
1.6249999999999967,-0.11392285882426892,0.052941461680563004,1.4878056506727504,0.36124556242474004
1.63333333333333,-0.11304450598039532,0.16488787880299507,1.4905595434489745,0.29558329879370243
1.6416666666666633,-0.11226623084240864,0.012388228805114657,1.4932863869408843,0.36307683055056023
1.6499999999999966,-0.11172463057455945,0.12462768683015481,1.4960554838897679,0.29740076975840757
