Time,Theta
0.0083333333333333332,0.17465456354098591
0.016666666666666666,0.17452445423637955
0.025000000000000001,0.17356279379877432
0.033333333333333333,0.17176801679857071
0.041666666666666664,0.17016072012718275
0.049999999999999996,0.16887478813335557
0.058333333333333327,0.16674783778471566
0.066666666666666666,0.16480097395051033
0.074999999999999997,0.16316768716638158
0.083333333333333329,0.16068378334098549
0.09166666666666666,0.15837101594243072
0.099999999999999992,0.15636246569443438
0.10833333333333332,0.15451860292565595
0.11666666666666665,0.15297336336443809
0.12499999999999999,0.15056040317413333
0.13333333333333333,0.14830355638205409
0.14166666666666666,0.14633625912548795
0.14999999999999999,0.14451876029195143
0.15833333333333333,0.14298529395797824
0.16666666666666666,0.14056744654382411
0.17499999999999999,0.13829086170666197
0.18333333333333332,0.1362891928070934
0.19166666666666665,0.13442238297105749
0.19999999999999998,0.13282483039571727
0.20833333333333331,0.13032605099342737
0.21666666666666665,0.12795329453761617
0.22499999999999998,0.12584030200163526
0.23333333333333331,0.12384661293704984
0.24166666666666664,0.12210666135589941
0.24999999999999997,0.11944782746669849
0.2583333333333333,0.11689880916295405
0.26666666666666666,0.11459330751490102
0.27500000000000002,0.11239034535025622
0.28333333333333338,0.11042426361038209
0.29166666666666674,0.10855446326342987
0.3000000000000001,0.1069158870385476
0.30833333333333346,0.10433359116425424
0.31666666666666682,0.1018385291596398
0.32500000000000018,0.099564783844693569
0.33333333333333354,0.097371114508070164
0.3416666666666669,0.095392159108153643
0.35000000000000026,0.093487009763663254
0.35833333333333361,0.091790824854830713
0.36666666666666697,0.089126442256069222
0.37500000000000033,0.086526547793919634
0.38333333333333369,0.084125324902975751
0.39166666666666705,0.08178107811948962
0.40000000000000041,0.079628465390780348
0.40833333333333377,0.077526069396876701
0.41666666666666713,0.075608988930899207
0.42500000000000049,0.073736079412947006
0.43333333333333385,0.072042850675170508
0.44166666666666721,0.070388425519969211
0.45000000000000057,0.068908698530585122
0.45833333333333393,0.066424203180717969
0.46666666666666728,0.063970160566150944
0.47500000000000064,0.061681304749138133
0.483333333333334,0.059415770863220814
0.49166666666666736,0.057308640064419658
0.50000000000000067,0.05521825510974996
0.50833333333333397,0.053280015236519256
0.51666666666666727,0.051352461110797054
0.52500000000000058,0.049571283834923111
0.53333333333333388,0.047795212372138858
0.54166666666666718,0.046160205995863457
0.55000000000000049,0.04452517256245634
0.55833333333333379,0.043026318100402715
0.5666666666666671,0.041522720244784553
0.5750000000000004,0.040150812423221924
0.5833333333333337,0.037729049292692822
0.59166666666666701,0.035294679783933691
0.60000000000000031,0.032982761340407493
0.60833333333333361,0.030651103135387003
0.61666666666666692,0.028434954480559889
0.62500000000000022,0.026192231815805985
0.63333333333333353,0.024058349980484794
0.64166666666666683,0.021891318292678087
0.65000000000000013,0.019826692299210073
0.65833333333333344,0.017722559769783583
0.66666666666666674,0.015714593431281093
0.67500000000000004,0.013660945053893793
0.68333333333333335,0.011697382099151747
0.69166666666666665,0.0096821058624022086
0.69999999999999996,0.0077509569798184198
0.70833333333333326,0.0057621717618144821
0.71666666666666656,0.0038516431599035219
0.72499999999999987,0.0018776279352529612
0.73333333333333317,-2.3948978866582688e-05
0.74166666666666647,-0.0019948250157423358
0.74999999999999978,-0.0038990632354733525
0.75833333333333308,-0.0058784100242980815
0.76666666666666639,-0.0077969362137911393
0.77499999999999969,-0.0097964120517398494
0.78333333333333299,-0.011740935879657429
0.7916666666666663,-0.013772316905624535
0.7999999999999996,-0.014713069040353107
0.8083333333333329,-0.015606347274586882
0.81666666666666621,-0.016592369812903865
0.82499999999999951,-0.017533731823226477
0.83333333333333282,-0.018570720213806225
0.84166666666666612,-0.01956600942692378
0.84999999999999942,-0.020659963187464367
0.85833333333333273,-0.021715344795896232
0.86666666666666603,-0.022872603293044334
0.87499999999999933,-0.023994601013599754
0.88333333333333264,-0.025221881236339973
0.89166666666666594,-0.026417416170077573
0.89999999999999925,-0.027721852712744438
0.90833333333333255,-0.028998284528019749
0.91666666666666585,-0.030387472009716244
0.92499999999999916,-0.031752642680935535
0.93333333333333246,-0.033234680839452184
0.94166666666666576,-0.034696961185806292
0.94999999999999907,-0.036280502896023713
0.95833333333333237,-0.036807921722057282
0.96666666666666567,-0.037321051852671434
0.97499999999999898,-0.037959447629720124
0.98333333333333228,-0.038585269599208709
0.99166666666666559,-0.039338237032977466
0.99999999999999889,-0.040080685793697925
1.0083333333333322,-0.040952504620339919
1.0166666666666655,-0.041816212308929339
1.0249999999999988,-0.042811872512702596
1.0333333333333321,-0.04380219574893842
1.0416666666666654,-0.044927426945339848
1.0499999999999987,-0.046050478372566629
1.058333333333332,-0.047311783510657394
1.0666666666666653,-0.048574467741947444
1.0749999999999986,-0.049979161299547069
1.0833333333333319,-0.050349035569972653
1.0916666666666652,-0.050724952340935214
1.0999999999999985,-0.051246159992593958
1.1083333333333318,-0.051774737754458747
1.1166666666666651,-0.052450160554367062
1.1249999999999984,-0.053134740546136358
1.1333333333333317,-0.053968181771070212
1.1416666666666651,-0.054813037178062032
1.1499999999999984,-0.055809243756113597
1.1583333333333317,-0.056819604611181351
1.166666666666665,-0.05798429475513945
1.1749999999999983,-0.058126735318524907
1.1833333333333316,-0.058286910612164879
1.1916666666666649,-0.058603667938925907
1.1999999999999982,-0.058938854281557353
1.2083333333333315,-0.059431581333829024
1.2166666666666648,-0.059943957319354563
1.2249999999999981,-0.060615358332763304
1.2333333333333314,-0.061308160844964224
1.2416666666666647,-0.062162006898665537
1.249999999999998,-0.063039549805051415
1.2583333333333313,-0.06408070058535463
1.2666666666666646,-0.064109219485304209
1.2749999999999979,-0.0641644576730451
1.2833333333333312,-0.064385039778233982
1.2916666666666645,-0.064632731379875075
1.2999999999999978,-0.065046450595082267
1.3083333333333311,-0.065488246905344105
1.3166666666666644,-0.066097330399934984
1.3249999999999977,-0.06673604145750045
1.333333333333331,-0.067543882359174301
1.3416666666666643,-0.067344591447648885
1.3499999999999976,-0.067176897761898308
1.358333333333331,-0.067179046506265008
1.3666666666666643,-0.067212520162761233
1.3749999999999976,-0.067415875993048907
1.3833333333333309,-0.067650887113485297
1.3916666666666642,-0.06805641889249156
1.3999999999999975,-0.068494540754926336
1.4083333333333308,-0.069104424143928062
1.4166666666666641,-0.068709667948644068
1.4249999999999974,-0.068348578434056659
1.4333333333333307,-0.068159086742821021
1.441666666666664,-0.068002412182900249
1.4499999999999973,-0.06801680760139113
1.4583333333333306,-0.068063782337358381
1.4666666666666639,-0.068281904967742876
1.4749999999999972,-0.068532979229188939
1.4833333333333305,-0.06895588549660954
1.4916666666666638,-0.069412727799774282
1.4999999999999971,-0.070042696316175296
1.5083333333333304,-0.069669510878393348
1.5166666666666637,-0.069331428527515782
1.524999999999997,-0.069166404558945072
1.5333333333333303,-0.069035704865575975
1.5416666666666636,-0.069077610658276459
1.5499999999999969,-0.069153682576479886
1.5583333333333302,-0.069402521892835606
1.5666666666666635,-0.069685988701399679
1.5749999999999968,-0.070143000543661224
1.5833333333333302,-0.069597034844314273
1.5916666666666635,-0.069086083578099047
1.5999999999999968,-0.068747836176559815
1.6083333333333301,-0.068443306080464575
1.6166666666666634,-0.068310511229434143
1.6249999999999967,-0.068210753747443384
1.63333333333333,-0.068282372522044305
1.6416666666666633,-0.068386961722992801
1.6499999999999966,-0.068663175761244394
1.6583333333333299,-0.067934083864817876
1.6666666666666632,-0.067237533943159511
1.6749999999999965,-0.066710948927199212
1.6833333333333298,-0.066215049151832267
1.6916666666666631,-0.065887581107747631
1.6999999999999964,-0.065589540858029885
1.7083333333333297,-0.065458989190433539
1.716666666666663,-0.065357199577246242
1.7249999999999963,-0.065422540004204929
1.7333333333333296,-0.065516564340819622
1.7416666666666629,-0.065777942712253859
1.7499999999999962,-0.065029449760892505
1.7583333333333295,-0.064309145601721254
1.7666666666666628,-0.063754450148440278
1.7749999999999961,-0.063226009904356506
1.7833333333333294,-0.062861554499840835
1.7916666666666627,-0.062521993692716701
1.799999999999996,-0.062345357626729603
1.8083333333333294,-0.062192820324485448
1.8166666666666627,-0.062202705319221015
1.824999999999996,-0.06119709727086068
1.8333333333333293,-0.060213958425061068
1.8416666666666626,-0.059390346679264773
1.8499999999999959,-0.058586474640039257
1.8583333333333292,-0.057939695072674977
1.8666666666666625,-0.057310460005445159
1.8749999999999958,-0.056836405497896279
1.8833333333333291,-0.056378221451543718
1.8916666666666624,-0.056073817697825511
1.8999999999999957,-0.055784121479902589
1.908333333333329,-0.055647308803999949
1.9166666666666623,-0.05552454481477314
1.9249999999999956,-0.055554265912372433
1.9333333333333289,-0.054558034043354936
1.9416666666666622,-0.053574311305225816
1.9499999999999955,-0.052740223150855359
1.9583333333333288,-0.051915899768210816
1.9666666666666621,-0.051238728483137583
1.9749999999999954,-0.050569052472561452
1.9833333333333287,-0.050044509947621517
1.991666666666662,-0.049525654468078814
1.9999999999999953,-0.049150365963631835
2.0083333333333289,-0.048779406676988574
2.0166666666666622,-0.048550890798716717
2.0249999999999955,-0.048325788514962054
2.0333333333333288,-0.048242442432050066
2.0416666666666621,-0.047121713323141412
2.0499999999999954,-0.046002348660728797
2.0583333333333287,-0.045021334544445776
2.066666666666662,-0.044038518727296701
2.0749999999999953,-0.043191113792455896
2.0833333333333286,-0.042339146884502805
2.0916666666666619,-0.041620045205940044
2.0999999999999952,-0.040894010616258178
2.1083333333333285,-0.040298674670171113
2.1166666666666618,-0.039694409975634344
2.1249999999999951,-0.039219043660283365
2.1333333333333284,-0.038733115855351517
2.1416666666666617,-0.038374641875069629
2.149999999999995,-0.038004326918079284
2.1583333333333283,-0.037760368409959041
2.1666666666666616,-0.037503634956694593
2.1749999999999949,-0.037372501260865561
2.1833333333333282,-0.037227998497691671
2.1916666666666615,-0.037208674993695852
2.1999999999999948,-0.036134821650250934
2.2083333333333282,-0.035045840210620641
2.2166666666666615,-0.034078848096354065
2.2249999999999948,-0.033093631644043491
2.2333333333333281,-0.032227479854296803
2.2416666666666614,-0.031340315165292718
2.2499999999999947,-0.030569587281496002
2.258333333333328,-0.029775348868423247
2.2666666666666613,-0.029095200655726648
2.2749999999999946,-0.028389320198664091
2.2833333333333279,-0.02779545067872486
2.2916666666666612,-0.027173889745068226
2.2999999999999945,-0.026662515482720799
2.3083333333333278,-0.026121741383651541
2.3166666666666611,-0.025689573842775048
2.3249999999999944,-0.025226538490257668
2.3333333333333277,-0.024870764330422387
2.341666666666661,-0.024482885974693145
2.3499999999999943,-0.024201150176095507
2.3583333333333276,-0.02388629791931458
2.3666666666666609,-0.023676689639101356
2.3749999999999942,-0.023433170636227588
2.3833333333333275,-0.023294211714581545
2.3916666666666608,-0.023120760987616455
2.3999999999999941,-0.02305139703695885
2.4083333333333274,-0.022947169843531279
2.4166666666666607,-0.02294676386893045
2.424999999999994,-0.021869895088842954
2.4333333333333274,-0.020756491294945532
2.4416666666666607,-0.019743713705255059
2.449999999999994,-0.018691204470795267
2.4583333333333273,-0.017736226111661348
2.4666666666666606,-0.016738498376049512
2.4749999999999939,-0.01583537449418573
2.4833333333333272,-0.01488664426762391
2.4916666666666605,-0.014029741734985187
2.4999999999999938,-0.013124519480458743
2.5083333333333271,-0.012308483059309368
2.5166666666666604,-0.011441540819519234
2.5249999999999937,-0.010661261077431178
2.533333333333327,-0.0098276011549575139
2.5416666666666603,-0.0090781838419411245
2.5499999999999936,-0.008273008849112912
2.5583333333333269,-0.007549745556878487
2.5666666666666602,-0.0067684296591524326
2.5749999999999935,-0.0060667695894330055
2.5833333333333268,-0.0053048307725537831
2.5916666666666601,-0.0046203534474860454
2.5999999999999934,-0.0038734266443086183
2.6083333333333267,-0.0032018153970720994
2.61666666666666,-0.0024656263146791706
2.6249999999999933,-0.0018026424029396781
2.6333333333333266,-0.0010729818945887368
2.6416666666666599,-0.00041443908278644768
2.6499999999999932,0.00031286208772270628
2.6583333333333266,0.00097112262855095547
2.6666666666666599,0.0017002187802803402
2.6749999999999932,0.0023623534046454228
2.6833333333333265,0.0030974088395045434
2.6916666666666598,0.0037675963401028385
2.6999999999999931,0.0045128102976751197
2.7083333333333264,0.0051952769469053349
2.7166666666666597,0.0059549087626540381
2.724999999999993,0.0066539536320897276
2.7333333333333263,0.0074323482485919917
2.7416666666666596,0.0081523689570108734
2.7499999999999929,0.0089539829398109783
2.7583333333333262,0.0096995019827427441
2.7666666666666595,0.010528930195194276
2.7749999999999928,0.01130462201214969
2.7833333333333261,0.012166625107235608
2.7916666666666594,0.011935678916581434
2.7999999999999927,0.01165321075254633
2.808333333333326,0.011457670862398579
2.8166666666666593,0.011209888576763777
2.8249999999999926,0.011048367499877953
2.8333333333333259,0.010833986808235633
2.8416666666666592,0.010705301323008199
2.8499999999999925,0.010523238478712131
2.8583333333333258,0.010426402500395128
2.8666666666666591,0.010275767763923898
2.8749999999999925,0.010209986398023105
2.8833333333333258,0.01009007866959187
2.8916666666666591,0.010054743411836802
2.8999999999999924,0.0099650459951204466
2.9083333333333257,0.0099597310492066451
2.916666666666659,0.0098999085207584353
2.9249999999999923,0.0099243682117127301
2.9333333333333256,0.0098942643772408044
2.9416666666666589,0.0099484316447841555
2.9499999999999922,0.0099480685699196939
2.9583333333333255,0.010032054532637249
2.9666666666666588,0.01006163264222909
2.9749999999999921,0.010175727229738371
2.9833333333333254,0.010235626476075271
2.9916666666666587,0.010380300132747653
2.999999999999992,0.010471082239476844
3.0083333333333253,0.010646988709649825
3.0166666666666586,0.010769400504565251
3.0249999999999919,0.0109773807156202
3.0333333333333252,0.011132358571971411
3.0416666666666585,0.011373445638178652
3.0499999999999918,0.011562121050738125
3.0583333333333251,0.011837546427425218
3.0666666666666584,0.012061252756284016
3.0749999999999917,0.012372453580700118
3.083333333333325,0.012632734002676076
3.0916666666666583,0.012981361664941977
3.0999999999999917,0.013279978379617693
3.108333333333325,0.013667908374404585
3.1166666666666583,0.014006853119201952
3.1249999999999916,0.014436196236309573
3.1333333333333249,0.014817702172690267
3.1416666666666582,0.01529081709253379
3.1499999999999915,0.015717372133428959
3.1583333333333248,0.016236879501631437
3.1666666666666581,0.016711241158585917
3.1749999999999914,0.017280039222445937
3.1833333333333247,0.017805251059749005
3.191666666666658,0.018426532958347595
3.1999999999999913,0.019005942750649922
3.2083333333333246,0.0196832155598115
3.2166666666666579,0.01927897920062642
3.2249999999999912,0.018834253766217238
3.2333333333333245,0.018487222713143851
3.2416666666666578,0.018098509021079501
3.2499999999999911,0.017806383653438236
3.2583333333333244,0.017471548753218612
3.2666666666666577,0.017232359038403304
3.274999999999991,0.016949593366197793
3.2833333333333243,0.016761687010852164
3.2916666666666576,0.016529493505001675
3.2999999999999909,0.016391526007314312
3.3083333333333242,0.016208711093489862
3.3166666666666575,0.016119637637825906
3.3249999999999909,0.015985304030591767
3.3333333333333242,0.015944373176431881
3.3416666666666575,0.015857914454574264
3.3499999999999908,0.01586466358224559
3.3583333333333241,0.01582576050562938
3.3666666666666574,0.015880012991637792
3.3749999999999907,0.015888631537593328
3.383333333333324,0.015990495642551648
3.3916666666666573,0.01604688674992083
3.3999999999999906,0.016196756212164185
3.4083333333333239,0.016301457231200984
3.4166666666666572,0.016500013569239139
3.4249999999999905,0.01665385142561468
3.4333333333333238,0.016902067962642733
3.4416666666666571,0.017106164053900374
3.4499999999999904,0.017405311687724471
3.4583333333333237,0.017661088540715915
3.466666666666657,0.0180127432927004
3.4749999999999903,0.018321933020860978
3.4833333333333236,0.018727985407917081
3.4916666666666569,0.019092640017755128
3.4999999999999902,0.019555306302018124
3.5083333333333235,0.019977809908949675
3.5166666666666568,0.020499645290679235
3.5249999999999901,0.01994123145130294
3.5333333333333234,0.019343337512944436
3.5416666666666567,0.018843912779330684
3.5499999999999901,0.018303355730387789
3.5583333333333234,0.01785970648372727
3.5666666666666567,0.0173734427932879
3.57499999999999,0.016982690322298766
3.5833333333333233,0.016548002433504447
3.5916666666666566,0.016207585652190378
3.5999999999999899,0.015822065668425592
3.6083333333333232,0.01552972573216365
3.6166666666666565,0.01519126095395331
3.6249999999999898,0.014945027683331344
3.6333333333333231,0.014651787910778886
3.6416666666666564,0.014449967943023129
3.6499999999999897,0.014200394468820226
3.658333333333323,0.014041561066680612
3.6666666666666563,0.013834357294547269
3.6749999999999896,0.013717341752181603
3.6833333333333229,0.013551465385093803
3.6916666666666562,0.013475349979855377
3.6999999999999895,0.013350006731629945
3.7083333333333228,0.013314119179760022
3.7166666666666561,0.013228757972536231
3.7249999999999894,0.013232667355637655
3.7333333333333227,0.013186976974567461
3.741666666666656,0.013230491112433152
3.7499999999999893,0.013224398297510964
3.7583333333333226,0.013307562551446737
3.7666666666666559,0.013341231514920789
3.7749999999999893,0.013464329014180272
3.7833333333333226,0.013538162380435549
3.7916666666666559,0.013701715672821892
3.7999999999999892,0.013816356846054749
3.8083333333333225,0.014021130982183837
3.8166666666666558,0.014177467955645484
3.8249999999999891,0.014424475024854019
3.8333333333333224,0.014623645653969321
3.8416666666666557,0.014914150798433154
3.849999999999989,0.015157549568747614
3.8583333333333223,0.015493078511096417
3.8666666666666556,0.015782364840812479
3.8749999999999889,0.016164712969430232
3.8833333333333222,0.016501821095308837
3.8916666666666555,0.016933064160641019
3.8999999999999888,0.016278633742807379
3.9083333333333221,0.015579237689210709
3.9166666666666554,0.01497268499877406
3.9249999999999887,0.014319202778340128
3.933333333333322,0.013756673505647419
3.9416666666666553,0.013145386209111865
3.9499999999999886,0.012623290618847639
3.9583333333333219,0.012050732906114458
3.9666666666666552,0.011565724298891144
3.9749999999999885,0.011028663609103229
3.9833333333333218,0.010577618235882517
3.9916666666666551,0.010073035388937505
3.9999999999999885,0.0096530336994135619
4.0083333333333222,0.0091781047740839613
4.0166666666666559,0.0087864138877902665
4.0249999999999897,0.0083384932689219531
4.0333333333333234,0.0079725505648678349
4.0416666666666572,0.0075491550588743812
4.0499999999999909,0.0072065527860001371
4.0583333333333247,0.0068053467100676612
4.0666666666666584,0.0064838175267540417
4.0749999999999922,0.0061025986828473914
4.0833333333333259,0.0058000020391512468
4.0916666666666597,0.0054366884890913961
4.0999999999999934,0.00515099777032878
