Time,Theta,ThetaDot,X,XDot
0.0083333333333333332,-0.17465456354098599,-0.031142921157237487,5.444968523630593e-06,0.0013940533325861894
0.016666666666666666,-0.17452445423637963,0.068607115826005899,-0.00023712157842067322,-0.063677185084342905
0.025000000000000001,-0.1735627937987744,0.16846455592945694,-0.0010219655055152602,-0.12875449780224274
0.033333333333333333,-0.17176801679857079,0.26860102183859141,-0.0023491750493474435,-0.19384750879251342
0.041666666666666664,-0.17016072012718284,0.10709534097953154,-0.0036995766804273061,-0.12600977015324488
0.049999999999999996,-0.16887478813335566,0.20786980941796573,-0.005004032980730916,-0.19113232067347891
0.058333333333333327,-0.16674783778471575,0.30899001460910236,-0.0068512462772752063,-0.25627425772621149
0.066666666666666666,-0.16480097395051041,0.14825937733610636,-0.0087219847414254786,-0.18846590727534993
0.074999999999999997,-0.16316768716638166,0.25015252239241714,-0.010547121870794119,-0.25364367769048363
0.083333333333333329,-0.16068378334098557,0.35246236768408756,-0.012915491329043193,-0.31884471889092636
0.09166666666666666,-0.1583710159424308,0.19267198002062177,-0.015307790016805645,-0.2510724091094782
0.099999999999999992,-0.15636246569443446,0.29589902044479505,-0.017654902388737105,-0.31631603098042554
0.10833333333333332,-0.15451860292565603,0.13672572696774252,-0.020026212551143025,-0.2485649918546162
0.11666666666666665,-0.15297336336443818,0.24068034672237948,-0.022352565772778599,-0.31384248465757114
0.12499999999999999,-0.15056040317413341,0.34503280540493025,-0.025222977662466155,-0.37914206403344147
0.13333333333333333,-0.14830355638205417,0.18677597615333716,-0.028117976977659668,-0.31142689557516307
0.14166666666666666,-0.14633625912548803,0.29201844636630997,-0.030968424488546576,-0.37676794249171708
0.14999999999999999,-0.14451876029195151,0.13437460998008741,-0.033843725432683221,-0.30907456745235562
0.15833333333333333,-0.14298529395797832,0.24033021613418165,-0.036674703720988466,-0.37444891937433961
0.16666666666666666,-0.14056744654382419,0.34668036424995963,-0.040050546512077193,-0.4398450286502335
0.17499999999999999,-0.13829086170666205,0.18996313384233346,-0.043451632685065161,-0.37218859422822481
0.18333333333333332,-0.13628919280709348,0.2972062354568249,-0.046808805678799567,-0.4376264216707294
0.19166666666666665,-0.13442238297105757,0.14112080261524676,-0.050191494566307671,-0.36999308757071769
0.19999999999999998,-0.13282483039571735,0.24909251854001024,-0.053530508061771599,-0.43546502494244588
0.20833333333333331,-0.13032605099342745,0.35747063162123582,-0.057415201125912377,-0.50095920007130534
0.21666666666666665,-0.12795329453761625,0.20235764996758657,-0.061325815449803048,-0.43336528910939465
0.22499999999999998,-0.12584030200163535,0.31166140918898122,-0.065193182993663237,-0.49890279372372037
0.23333333333333331,-0.12384661293704992,0.15722360301348931,-0.069086760461823701,-0.43133422688713641
0.24166666666666664,-0.1221066613558995,0.26730143999856715,-0.072937347159149027,-0.49690802990768163
0.24999999999999997,-0.11944782746669858,0.37781278694255399,-0.077334467242523214,-0.56250533579051676
0.2583333333333333,-0.11689880916295414,0.22443212684225611,-0.081758233923630172,-0.494980304042065
0.26666666666666666,-0.11459330751490111,0.3359321839432225,-0.086139473369718444,-0.56062394272962124
0.27500000000000002,-0.11239034535025633,0.18329733338693688,-0.090547674764820868,-0.49312762657224013
0.28333333333333338,-0.1104242636103822,0.29564795390338955,-0.09491363376608436,-0.55881118272981933
0.29166666666666674,-0.10855446326342998,0.14365443927795232,-0.099306827224756603,-0.49133982807491083
0.3000000000000001,-0.10691588703854772,0.25672350425275786,-0.10365802223891984,-0.55705713944507362
0.30833333333333346,-0.10433359116425436,0.37020367641570806,-0.1085569405839913,-0.62279643257966566
0.31666666666666682,-0.10183852915963992,0.21924297118631192,-0.11348351167159576,-0.55536850679608019
0.32500000000000018,-0.099564783844693694,0.3336815967482365,-0.11836853610618846,-0.62115276724121327
0.33333333333333354,-0.097371114508070289,0.18347006705698937,-0.12328152709192486,-0.55375461681613425
0.3416666666666669,-0.095392159108153796,0.29874751170279046,-0.12815325853551102,-0.61957826594953969
0.35000000000000026,-0.093487009763663406,0.14919305084627518,-0.1330532325013451,-0.5522064772596309
0.35833333333333361,-0.091790824854830866,0.26519556487031315,-0.13791219796673856,-0.61806419494636766
0.36666666666666697,-0.089126442256069374,0.38161799669070057,-0.14332005727142669,-0.68394400493704322
0.37500000000000033,-0.0865265477939198,0.23314832426448745,-0.14875659076489486,-0.61661862513697663
0.38333333333333369,-0.084125324902975918,0.35055989218898176,-0.15415258680258298,-0.6825448044223873
0.39166666666666705,-0.0817810781194898,0.20289480852509492,-0.15957758944374417,-0.61525230658446295
0.40000000000000041,-0.079628465390780528,0.32119417974820635,-0.16496236398559372,-0.68122011651964165
0.40833333333333377,-0.077526069396876882,0.17425551394345676,-0.17037644528337173,-0.6139575670714672
0.41666666666666713,-0.075608988930899387,0.29334749051309006,-0.17575057726667095,-0.67996254680387724
0.42500000000000049,-0.073736079412947186,0.14706016840945543,-0.18115428526054891,-0.61272705316571796
0.43333333333333385,-0.072042850675170703,0.26685501343173934,-0.1865182933381799,-0.67876499248850286
0.44166666666666721,-0.070388425519969419,0.12114681515288873,-0.19191211705742664,-0.61155370990532198
0.45000000000000057,-0.06890869853058533,0.24155962069239592,-0.19726646198035369,-0.67762062268691048
0.45833333333333393,-0.066424203180718178,0.36234646377095286,-0.20317143255544068,-0.7437066762650294
0.46666666666666728,-0.063970160566151152,0.21764922461130518,-0.20910660609416468,-0.67653962299741366
0.47500000000000064,-0.061681304749138348,0.33935423771669831,-0.21500273742320869,-0.74266858356110355
0.483333333333334,-0.059415770863221036,0.19544366782564829,-0.22092939092060868,-0.67553484916094797
0.49166666666666736,-0.057308640064419894,0.31799251761758651,-0.22681730442466452,-0.74170321792383676
0.50000000000000067,-0.055218255109750196,0.17481061565022499,-0.23273603516700772,-0.6746005571589121
0.50833333333333397,-0.053280015236519512,0.29813464742030515,-0.23861630544818932,-0.74080510051366655
0.51666666666666727,-0.051352461110797325,0.1556269228578489,-0.24452766543093113,-0.67373136327450112
0.52500000000000058,-0.049571283834923402,0.27966267266195949,-0.25040082319151313,-0.73996909170543923
0.53333333333333388,-0.047795212372139156,0.13777795217063676,-0.25630532195587757,-0.67292222516489875
0.54166666666666718,-0.046160205995863762,0.26246669845470999,-0.26217185676442106,-0.73919037335964555
0.55000000000000049,-0.044525172562456652,0.12115693126498578,-0.2680699640783365,-0.67216842217316208
0.55833333333333379,-0.043026318100403034,0.24644428261667806,-0.27393032697659553,-0.73846443035658582
0.5666666666666671,-0.0415227202447849,0.10566434709746424,-0.2798224753556145,-0.67146553534525077
0.5750000000000004,-0.040150812423222278,0.23149986296022168,-0.28567708130372205,-0.73778703182410788
0.5833333333333337,-0.037729049292693183,0.35768387253629003,-0.29208442654635242,-0.80412560823609969
0.59166666666666701,-0.035294679783934066,0.21789911556155295,-0.29852392019503554,-0.73717113484013752
0.60000000000000031,-0.032982761340407882,0.34497383844330343,-0.30492629485701134,-0.80355093297902469
0.60833333333333361,-0.030651103135387419,0.20600697175607155,-0.31136114005420595,-0.73663235827894546
0.61666666666666692,-0.028434954480560319,0.333931065081989,-0.317759178935489,-0.80305139097088696
0.62500000000000022,-0.02619223181580644,0.19575223463438743,-0.32418999733692272,-0.73616758452682263
0.63333333333333353,-0.024058349980485273,0.32448980103140168,-0.33058431025668938,-0.80262411843452597
0.64166666666666683,-0.021891318292678579,0.18707342982721309,-0.33701170028031874,-0.73577411132537318
0.65000000000000013,-0.01982669229921059,0.31659374346468883,-0.34340287548585402,-0.80226665374683126
0.65833333333333344,-0.017722559769784128,0.17991846019017074,-0.34982741567460079,-0.73544964138225344
0.66666666666666674,-0.015714593431281662,0.3101957286432398,-0.35621602316909279,-0.80197692843156732
0.67500000000000004,-0.013660945053894386,0.17424431090913503,-0.36263827547720667,-0.73519227306702939
0.68333333333333335,-0.011697382099152368,0.30525747053103491,-0.36902487027526087,-0.80175325918080542
0.69166666666666665,-0.0096821058624028539,0.17001680440216424,-0.37544538328789512,-0.73500049239003173
0.69999999999999996,-0.0077509569798190911,0.30174934710505896,-0.38183050860919021,-0.80159434109042804
0.70833333333333326,-0.0057621717618151795,0.16721040441717766,-0.38824982070616038,-0.73487316640955058
0.71666666666666656,-0.0038516431599042462,0.29965023394478585,-0.39463401111883983,-0.80149924224555524
0.72499999999999987,-0.0018776279352537132,0.16580806879245061,-0.40105265359454273,-0.73480953817143402
0.73333333333333317,2.394897886580209e-05,0.29894738473242682,-0.40743643812077723,-0.80146739975208048
0.74166666666666647,0.0019948250157415261,0.16580115044781424,-0.41385493827294551,-0.73480922325227715
0.74999999999999978,0.0038990632354725112,0.29963635837437719,-0.42023884346966084,-0.80149861727811367
0.75833333333333308,0.0058784100242972089,0.16718934629829427,-0.42665772767008103,-0.73487220795043695
0.76666666666666639,0.0077969362137902338,0.30172099255337886,-0.43304228069819006,-0.80159306414169462
0.77499999999999969,0.0097964120517389074,0.16998069392039936,-0.43946207745875709,-0.73499884914598557
0.78333333333333299,0.011740935879656455,0.30521342363182846,-0.44584780915437489,-0.80175127595662421
0.7916666666666663,0.013772316905623527,0.17419161594691446,-0.45226905220189906,-0.73518987582947304
0.7999999999999996,0.014713069040352062,0.043446875753308578,-0.45813567378067233,-0.66864140484950951
0.8083333333333329,0.015606347274585802,0.17946631827331652,-0.46396857146801385,-0.73542939314136313
0.81666666666666621,0.016592369812902748,0.049059623190602877,-0.46983724932687038,-0.66889643625943151
0.82499999999999951,0.017533731823225322,0.18541609620882638,-0.47567233108262147,-0.73569953625549944
0.83333333333333282,0.018570720213805032,0.055365512694654596,-0.48154332370629255,-0.66918294035756765
0.84166666666666612,0.019566009426922534,0.19207640275683197,-0.48738085470998238,-0.7360019027295307
0.84999999999999942,0.020659963187463083,0.062402217584654057,-0.49325443430063298,-0.66950261895900465
0.85833333333333273,0.0217153447958949,0.1994869212648985,-0.49909469424339181,-0.73633827890102943
0.86666666666666603,0.022872603293042953,0.070211777888111213,-0.50497114831952739,-0.66985736933896267
0.87499999999999933,0.023994601013598318,0.20769179706999208,-0.51081443304462149,-0.73671064955282672
0.88333333333333264,0.025221881236338482,0.078840848249209658,-0.51669406612352742,-0.67024929467222993
0.89166666666666594,0.026417416170076022,0.21673989450560346,-0.52254068935453668,-0.73712120850943097
0.89999999999999925,0.027721852712742825,0.088340972443578525,-0.5284238247262204,-0.67068071545791552
0.90833333333333255,0.028998284528018069,0.22668508047958305,-0.5342741198908616,-0.7375723701633361
0.91666666666666585,0.030387472009714499,0.09876888585089813,-0.54016110149146257,-0.67115418193170573
0.92499999999999916,0.031752642680933724,0.23758653590829043,-0.54601542364902211,-0.73806678191902331
0.93333333333333246,0.033234680839450303,0.11018684732496072,-0.55190661804157315,-0.67167248745616637
0.94166666666666576,0.034696961185804336,0.24950909635663321,-0.55776534592176896,-0.73860733752716667
0.94999999999999907,0.036280502896021694,0.12266300197656238,-0.56366114439196358,-0.67223868286338007
0.95833333333333237,0.03680792172205518,-0.003980354802735361,-0.56900391586839683,-0.60587989080583149
0.96666666666666567,0.037321051852669242,0.13588695398611894,-0.57431447218646992,-0.67283914029010483
0.97499999999999898,0.037959447629717848,0.0094462830434091719,-0.57966228352892513,-0.60648975972035424
0.98333333333333228,0.038585269599206357,0.14952262763504731,-0.5849779573981071,-0.67345818706565941
0.99166666666666559,0.03933823703297501,0.023326678856214422,-0.59033097113320687,-0.6071201750114561
0.99999999999999889,0.040080685793695371,0.16365149419876951,-0.5956519404588525,-0.67409949428577109
1.0083333333333322,0.040952504620337268,0.037743891894943989,-0.60101034999805147,-0.60777488411573533
1.0166666666666655,0.041816212308926591,0.17835791642381396,-0.60633682409948964,-0.67476685712068285
1.0249999999999988,0.042811872512699738,0.052784161374658078,-0.61170085482667358,-0.60845777236798293
1.0333333333333321,0.04380219574893545,0.19372964180899058,-0.61703307561248344,-0.6754642152612107
1.0416666666666654,0.04492742694533676,0.068537413993955326,-0.62240298614440237,-0.60917288408945369
1.0499999999999987,0.046050478372563423,0.20985831323829804,-0.62774122946220956,-0.67619567367913069
1.058333333333332,0.047311783510654057,0.085097791161553596,-0.63311731308470465,-0.60992444407994462
1.0666666666666653,0.048574467741943968,0.22683999929788196,-0.63846189024844346,-0.67696552368034257
1.0749999999999986,0.04997916129954344,0.10256419839074982,-0.64384447653124566,-0.61071687948928721
1.0833333333333319,0.050349035569968892,-0.021538175920553571,-0.64867503116842662,-0.54447685744044316
1.0916666666666652,0.050724952340931322,0.12065481736025678,-0.65347429414138947,-0.61153794887424939
1.0999999999999985,0.051246159992589919,-0.0032944618292212839,-0.65831171794030618,-0.54530507151420071
1.1083333333333318,0.051774737754454563,0.13906439802397583,-0.66311791000663811,-0.61237333349756229
1.1166666666666651,0.052450160554362718,0.01532560416078153,-0.66796233271004313,-0.54615028235352414
1.1249999999999984,0.053134740546131862,0.15790288546650838,-0.6727756043201667,-0.61322797158732623
1.1333333333333317,0.053968181771065535,0.03443335949106175,-0.6776271970759169,-0.54701749513642295
1.1416666666666651,0.054813037178057168,0.17728269736756436,-0.6824477405232322,-0.614106902577368
1.1499999999999984,0.055809243756108559,0.054143008752556537,-0.68730671680095068,-0.54791183509417185
1.1583333333333317,0.056819604611176092,0.19731937661897336,-0.69213476725098377,-0.61501529320322756
1.166666666666665,0.057984294755133975,0.074572290261981353,-0.69700138397825562,-0.54883857415943305
1.1749999999999983,0.05812673531851921,-0.048044617360417888,-0.70131656037795231,-0.48266839984760296
1.1833333333333316,0.058286910612158953,0.095459092790371722,-0.70560097582295289,-0.54978630333920786
1.1916666666666649,0.058603667938919753,-0.027085365357708214,-0.70992406203662761,-0.48361951577076717
1.1999999999999982,0.058938854281550955,0.11651331452289314,-0.71421641855628226,-0.55074148760001695
1.2083333333333315,0.059431581333822356,-0.0058926326419000254,-0.71854748877374452,-0.48458117913714677
1.2166666666666648,0.059943957319347624,0.13786069575013524,-0.72284788421186952,-0.55170976650750414
1.2249999999999981,0.060615358332756095,0.015660242032137194,-0.72718705978189679,-0.48555907363132167
1.2333333333333314,0.061308160844956751,0.15962863339618358,-0.73149563942798701,-0.55269684472819269
1.2416666666666647,0.062162006898657765,0.037702029189379621,-0.7358430894850293,-0.48655896965783446
1.249999999999998,0.063039549805043338,0.18194691934392759,-0.74016004682675618,-0.5537085211934013
1.2583333333333313,0.06408070058534622,0.060364357773023659,-0.7445159891620915,-0.48758675389321604
1.2666666666666646,0.064109219485295452,-0.061110074098201912,-0.74832094497183865,-0.4214704654692078
1.2749999999999979,0.06416445767303601,0.083399568980258021,-0.75209554713736226,-0.48863164038536688
1.2833333333333312,0.064385039778224518,-0.038041967483469552,-0.75590921504553343,-0.42251688894177841
1.2916666666666645,0.064632731379865235,0.10652948272824614,-0.75969254683476728,-0.48968069235509215
1.2999999999999978,0.065046450595072039,-0.014806228399911513,-0.76351497489788889,-0.4235708966671502
1.3083333333333311,0.065488246905333503,0.12989218163611735,-0.76730711030016951,-0.49074009019541914
1.3166666666666644,0.066097330399923993,0.0087359307066385491,-0.77113839819823837,-0.42463870261683379
1.3249999999999977,0.066736041457489043,0.15362703712316872,-0.77493946304451833,-0.49181606280846091
1.333333333333331,0.067543882359162435,0.032725087077155379,-0.77877976257816461,-0.42572659311271371
1.3416666666666643,0.067344591447636576,-0.088112608348032154,-0.78206933609306672,-0.35964038518931629
1.3499999999999976,0.067176897761885554,0.05692530089058221,-0.78532877682699365,-0.42682415842734611
1.358333333333331,0.067179046506251727,-0.063964130789334994,-0.7886274858522454,-0.36073551804463128
1.3666666666666643,0.06721252016274748,0.081061798079439265,-0.79189604986705697,-0.42791878944065065
1.3749999999999976,0.067415875993034571,-0.03980298801393084,-0.79520388394833763,-0.3618312996157681
1.3833333333333309,0.067650887113470393,0.10527870092617581,-0.79848158783595868,-0.42901693283309744
1.3916666666666642,0.068056418892476045,-0.015484904218343134,-0.80179859025786471,-0.36293418378355125
1.3999999999999975,0.068494540754910169,0.12972053114155352,-0.80508550441592863,-0.43012504837790994
1.4083333333333308,0.069104424143911242,0.0091353176495849002,-0.80841177240806461,-0.36405066237244071
1.4166666666666641,0.068709667948626596,-0.11142329840687734,-0.81118743257765746,-0.29797761559586877
1.4249999999999974,0.068348578434038493,0.03382906490912739,-0.81393305333150967,-0.36517050528947576
1.4333333333333307,0.068159086742802161,-0.086854855452010715,-0.8167180211395132,-0.29909157349716053
1.441666666666664,0.068002412182880639,0.058321073420237117,-0.81947291141913026,-0.36628124160195474
1.4499999999999973,0.068016807601370743,-0.06241044273412498,-0.82226712523342282,-0.30020007104319435
1.4583333333333306,0.068063782337337231,0.082757624552670439,-0.8250312508415365,-0.36738941196535979
1.4666666666666639,0.068281904967720908,-0.037944118344378198,-0.82783470346007593,-0.30130963260005222
1.4749999999999972,0.068532979229166097,0.10728461134518145,-0.83060808456453106,-0.36850153946194986
1.4833333333333305,0.068955885496585795,-0.013309800751451285,-0.83342082316714938,-0.30242679010505402
1.4916666666666638,0.069412727799749607,0.13204838251923806,-0.83620353439357953,-0.36962416230341488
1.4999999999999971,0.070042696316149608,0.011639576617382005,-0.83902566076633167,-0.3035581158067126
1.5083333333333304,0.069669510878366592,-0.10873862280946786,-0.84129724962497876,-0.23749361562662319
1.5166666666666637,0.069331428527487943,0.03667695589508653,-0.84353886414472523,-0.30469346970933658
1.524999999999997,0.069166404558916136,-0.083817903086705503,-0.84581989145707748,-0.238623488828417
1.5333333333333303,0.069035704865545902,0.06152952990400444,-0.84807090950498365,-0.30582047553505487
1.5416666666666636,0.069077610658245234,-0.059003103496703804,-0.85036132017708488,-0.23974871612742663
1.5499999999999969,0.069153682576447439,0.086345706106668418,-0.85262171448344881,-0.30694576582643918
1.5583333333333302,0.069402521892801869,-0.03414608957045611,-0.85492150862932659,-0.24087591695234947
1.5666666666666635,0.069685988701364596,0.11127361253863702,-0.8571913070858509,-0.30807595974417817
1.5749999999999968,0.070143000543624781,-0.0090984691639820689,-0.85950054001580622,-0.24201172289916725
1.5833333333333302,0.069597034844276331,-0.12947312525728863,-0.8612592438644322,-0.17594733035385077
1.5916666666666635,0.069086083578059579,0.015916530473209331,-0.86298796887693074,-0.24314602382396491
1.5999999999999968,0.068747836176518792,-0.1046405022850487,-0.86475609036093681,-0.17707306744942963
1.6083333333333301,0.068443306080421942,0.040622772946012776,-0.86649417484489677,-0.244266436778905
