Time,Theta,ThetaDot,X,XDot,Out1,Out2,Out3,Out4
1894.3074813999999,0.28293784306108566,0.049798417508138189,-8.4898535591783983e-06,-0.0021735714409958982,0,0,0,0
1894.3237635,0.28404379464751844,0.22670699670229591,-0.00029349733370531597,-0.070498172296746653,0,0,0,0
1894.3396779,0.28563268638885403,0.14988339024409592,-0.00063111969136087943,-0.0065369144938197199,0,0,0,0
1894.3565048999999,0.28658256787776892,0.073339022919870739,-0.0004357992367474642,0.057408418973660058,0,0,0,0
1894.3728261000001,0.28689522608842466,-0.0030643064217224696,0.00029236218035318953,0.12134572543960825,0,0,0,0
1894.3891163000001,0.28657129709119195,-0.079464627898951506,0.0015533285020197238,0.18528289783889371,0,0,0,0
1894.4048663999999,0.28561026688617625,-0.1559999523210974,0.0033471294377353288,0.24922782788192197,0,0,0,0
1894.4208853,0.28401047097041832,-0.23280842295729698,0.0056738604668141223,0.31318840924180863,0,0,0,0
1894.4376697,0.28176909264848571,-0.31002846476260187,0.008533682865675251,0.37717254020544894,0,0,0,0
1894.4542071999999,0.27888216011791772,-0.38779892841486679,0.011926823753319488,0.44118812522771833,0,0,0,0
1894.4703959000001,0.27534454238347716,-0.46625922639418416,0.015853576143601448,0.50524307480305608,0,0,0,0
1894.4866385,0.2711499440779081,-0.54554945815053368,0.020314298987869732,0.56934530303060993,0,0,0,0
1894.5028847000001,0.26629089929245819,-0.62581052115356073,0.025309417186157101,0.63350272219762283,0,0,0,0
1894.5190436,0.26175744294000652,-0.45141043002964587,0.030322089968098181,0.56527366992263994,0,0,0,0
1894.5361415,0.25867538402126145,-0.27747582886621819,0.034766172443477739,0.49704119817565379,0,0,0,0
1894.5517930000001,0.25604073385009085,-0.36009713030228752,0.039159126830080361,0.56128864714210214,0,0,0,0
1894.5689932,0.25271519694045341,-0.44335273763920713,0.044087612497461764,0.62557235750416573,0,0,0,0
1894.5853992,0.24869291148187653,-0.5273901893890941,0.049551964202122538,0.68990066551943452,0,0,0,0
1894.6011449,0.2439667838369769,-0.61235763799590515,0.055552586072577431,0.7542818805781879,0,0,0,0
1894.6185224999999,0.23953402529755868,-0.44088067256946012,0.061572066193924573,0.68613402350531472,0,0,0,0
1894.6350401,0.23652826118955161,-0.26987943161008754,0.067023646837489154,0.61798614604326552,0,0,0,0
1894.6512230999999,0.23393879065388717,-0.3571377783313433,0.072425351866290288,0.6824577138933926,0,0,0,0
1894.6676161,0.23061984040005201,-0.44501907746619296,0.07836445283532531,0.74696483938683567,0,0,0,0
1894.6839167999999,0.22656561677501291,-0.53367761523895441,0.084841280012318235,0.81151620661471124,0,0,0,0
1894.7003729999999,0.22176903864728256,-0.62326813869953612,0.091856235831130548,0.87612044491829222,0,0,0,0
1894.7160716999999,0.2172335496423132,-0.4548211691325813,0.098891399978510014,0.80806612224937746,0,0,0,0
1894.7330506000001,0.21409966209904804,-0.28688576528458387,0.10535945792856061,0.74001511010210319,0,0,0,0
1894.749599,0.21135022254967201,-0.37882094613929607,0.11177895983755372,0.80471447805417184,0,0,0,0
1894.7660014000001,0.20783221245461231,-0.47141022152468398,0.1187377620301443,0.86945099355593758,0,0,0,0
1894.7822514,0.20353955373891494,-0.56481422880523602,0.1262362091215688,0.9342336160859197,0,0,0,0
1894.7990560000001,0.19846482850822778,-0.65919390945104739,0.13427472004986693,0.99907121343184568,0,0,0,0
1894.8149615,0.19361707306112169,-0.49405766932715867,0.14233490472559185,0.9311279719161748,0,0,0,0
1894.8308228999999,0.19014306578062137,-0.32949991998192485,0.14982892515522495,0.86319201739366791,0,0,0,0
1894.8468522999999,0.18803871014624371,-0.16533466258561152,0.15675683554684625,0.79526154559329643,0,0,0,0
1894.8634211000001,0.18628153887984869,-0.26252032828479982,0.1636377101227445,0.86021107971355182,0,0,0,0
1894.8791154,0.18371286856145908,-0.36015007475954092,0.1710599222585199,0.92518568902915921,0,0,0,0
1894.8968586999999,0.1803283423109972,-0.45839190510145744,0.17902371756978822,0.99019474310198541,0,0,0,0
1894.9123196999999,0.17612220290513997,-0.55741390370374433,0.18752941939805554,1.0552475153208254,0,0,0,0
1894.9295013000001,0.17108729213077276,-0.65738422365066784,0.19657742787915569,1.1203531486199103,0,0,0,0
1894.9460826,0.16623901538589447,-0.49624774686132972,0.20564883284720961,1.052548386994469,0,0,0,0
1894.9622145000001,0.16273103625432089,-0.33571952577497938,0.21415524529765709,0.98475521626484963,0,0,0,0
1894.9781688,0.16055902639650602,-0.17560944438291831,0.22209675017601646,0.91697052568118131,0,0,0,0
1894.9940286999999,0.15869442152009011,-0.27838143297412188,0.22999292661295398,0.98219162126785753,0,0,0,0
1895.0107920999999,0.15597169339843414,-0.38161700407956484,0.23843270631982999,1.0474385220578648,0,0,0,0
1895.0270998000001,0.1523862964280544,-0.48549084040749579,0.24741634182040423,1.1127208021835129,0,0,0,0
1895.0429291,0.14793222973161549,-0.59017750779263667,0.25694416490819949,1.1780478961266232,0,0,0,0
1895.0595307000001,0.14363048388078567,-0.43249368396739202,0.26649683487838988,1.1103652504534247,0,0,0,0
1895.0758192000001,0.14064048424893277,-0.27536089402797487,0.27548553722930308,1.0426958317862514,0,0,0,0
1895.0924147999999,0.1379288131975013,-0.38220814292710131,0.28443020024675891,1.108117062250517,0,0,0,0
1895.1091051000001,0.13432440464215606,-0.48968702552855536,0.2939201686364174,1.1735728756229746,0,0,0,0
1895.125669,0.12982129759787983,-0.59797601433563186,0.30395576784511447,1.2390727753175492,0,0,0,0
1895.1421545000001,0.12544357564217448,-0.44311048004942644,0.3140173980869338,1.171498090923534,0,0,0,0
1895.1582049000001,0.12235400118563909,-0.28882459756364454,0.32351597140470345,1.1039393271025248,0,0,0,0
1895.1747095000001,0.1195159525205482,-0.39930519591492858,0.33297168105077729,1.1695358010175205,0,0,0,0
1895.1911282999999,0.11575481224607141,-0.51043756605182111,0.34297415858080532,1.2351674096833216,0,0,0,0
1895.2078468,0.1110644378310371,-0.62240366156207638,0.35352373402462944,1.3008436451656686,0,0,0,0
1895.224158,0.1064714803384231,-0.47053536516788669,0.36410058351989394,1.233387907911303,0,0,0,0
1895.2411416,0.10314149060805185,-0.31929843134742497,0.37411538138775458,1.1659515813717964,0,0,0,0
1895.2571986999999,0.10106997365540757,-0.16849623144513076,0.38356826771533281,1.0985290127036642,0,0,0,0
1895.2736633,0.099218635256496338,-0.28304366489350502,0.39297964936218854,1.1643175260902578,0,0,0,0
1895.2895136,0.096411099873227643,-0.39804276194335497,0.40293935539096687,1.2301299851555094,0,0,0,0
1895.3053953000001,0.092642874227034253,-0.5136801627127715,0.41344762333271728,1.2959760784158472,0,0,0,0
1895.3214504,0.08790791195397156,-0.63014189384604113,0.42450477058159758,1.361865256842451,0,0,0,0
1895.3382302,0.083235747397078133,-0.48204876242459599,0.43559072881996291,1.294562618601016,0,0,0,0
1895.3544694,0.079794951549832099,-0.33462246065370371,0.44611592568887704,1.2272829485052346,0,0,0,0
1895.3707546999999,0.077580738193173654,-0.18766527737740568,0.45608052792299403,1.1600198301692213,0,0,0,0
1895.3865188,0.075551924757150335,-0.30675721613962692,0.46600517870627256,1.2260249911172851,0,0,0,0
1895.4032126,0.072528931628967327,-0.42633008774556108,0.47647996264015885,1.2920549397994665,0,0,0,0
1895.4192410999999,0.068507007756683128,-0.54657404052285752,0.48750512374289501,1.3581192199437124,0,0,0,0
1895.4358873000001,0.064518778395502949,-0.40165482730663954,0.49856037267752928,1.2909463336008649,0,0,0,0
1895.4520722,0.061735840660525239,-0.25730681621678159,0.50905593571613816,1.2237947804241067,0,0,0,0
1895.4687438000001,0.059114778143377636,-0.37946491437625551,0.5195126098977676,1.2899455821431365,0,0,0,0
1895.4856706999999,0.055473563187978157,-0.50221210730585952,0.53052064997598714,1.3561260100537973,0,0,0,0
1895.5024570999999,0.050806537624719129,-0.62573996330772674,0.54208033921209275,1.4223453171589364,0,0,0,0
1895.5191873000001,0.046146706844456181,-0.48388621258744152,0.55367131798556291,1.3553047540355641,0,0,0,0
1895.5354758000001,0.042666117787179089,-0.34273297635125965,0.56470373881005265,1.2882919440023226,0,0,0,0
1895.5520240999999,0.040359706258108134,-0.20208190399329945,0.57517780403330376,1.2212993907632386,0,0,0,0
1895.5681770000001,0.038183298334196217,-0.32820520447960849,0.58561440850334157,1.2876349061380761,0,0,0,0
1895.5839753,0.034954051963767663,-0.45482663949235463,0.59660389731818553,1.3539946955961466,0,0,0,0
1895.6008302,0.030667055571377388,-0.5821406870106669,0.6081465087265886,1.420387907533998,0,0,0,0
1895.6171674,0.026357013503946647,-0.44374535040365831,0.61972175877428526,1.3534966482261981,0,0,0,0
1895.633736,0.023197558320899786,-0.30600814566041512,0.63073969536379793,1.2866331050618971,0,0,0,0
1895.6500473999999,0.021183980103668652,-0.16873050826961408,0.64120051817627022,1.219789192298488,0,0,0,0
1895.6662984,0.01927173821672919,-0.29836706493792386,0.65162517394121933,1.2862870131292612,0,0,0,0
1895.6830176000001,0.016277596159163583,-0.42844697261101267,0.66260405349690732,1.3528057203043502,0,0,0,0
1895.6987263999999,0.012197090984057803,-0.55916671894724768,0.67413736610235486,1.4193542671648549,0,0,0,0
1895.7155648,0.008065815315576581,-0.42401541197043174,0.68570456144504655,1.352606257295778,0,0,0,0
1895.7318583000001,0.0050581566271832752,-0.28950599993790516,0.69671563989052887,1.285886603443656,0,0,0,0
1895.7481347999999,0.0031695385747632439,-0.15544040402452397,0.70717080473480021,1.219186789173101,0,0,0,0
1895.7637886,0.0013552858155959657,-0.28833971933993097,0.71759102422200638,1.2858337507636124,0,0,0,0
1895.7804951999999,-0.0015679648475199497,-0.4216590979533914,0.72856670340843277,1.3524997761312965,0,0,0,0
1895.7959228,-0.005604487556607524,-0.55559635321093181,0.74009803528104756,1.4191935376677867,0,0,0,0
1895.8133499,-0.0097184732089167242,-0.42363745615970078,0.75166444973134738,1.3525888329083049,0,0,0,0
1895.8294235999999,-0.012735487854053505,-0.29233152690445546,0.76267594821129092,1.2860141449511424,0,0,0,0
1895.8465309000001,-0.01466020424864467,-0.16148157258294993,0.77313274659574671,1.2194606394810155,0,0,0,0
1895.8631859,-0.016537265439606985,-0.29757289379697938,0.78355581101972771,1.2862516210235704,0,0,0,0
1895.879778,-0.019549944929923745,-0.43408963222368246,0.7945355333193892,1.3530610928048641,0,0,0,0
1895.8960841999999,-0.023702564459585164,-0.57123033074623031,0.80607210024096054,1.4198973461142295,0,0,0,0
1895.9119189,-0.02795973647650369,-0.44258169931694286,0.8176449650359191,1.3534430241658093,0,0,0,0
1895.9286336,-0.031147680440995529,-0.31462662816390224,0.82866417894057443,1.2870217214161306,0,0,0,0
1895.9453295999999,-0.033271414045232643,-0.18716984720632013,0.83912998195317168,1.2206243759982376,0,0,0,0
1895.9614875,-0.03433432375636819,-0.060015141539832388,0.84904253737338331,1.1542416440895455,0,0,0,0
1895.9779969000001,-0.035379173408346606,-0.19949526388815511,0.85892270497495005,1.2211836581749904,0,0,0,0
1895.994144,-0.037587292586365353,-0.33925031266008654,0.86936076140401053,1.2881370376997336,0,0,0,0
1896.0102638999999,-0.040961754562537978,-0.47948032137563051,0.88035683313593405,1.3551098593026316,0,0,0,0
1896.0264397000001,-0.044466655079289749,-0.35396084398894956,0.89139037271739907,1.2888006998764252,0,0,0,0
1896.0423684,-0.046927903844467413,-0.22900703751077781,0.90187145094892507,1.2225193274476449,0,0,0,0
1896.0590228999999,-0.048349455650782379,-0.10442442798703251,0.91180026271405845,1.1562563105212131,0,0,0,0
1896.0750578,-0.049773922347440547,-0.24635761458044136,0.9216976367232923,1.223305586794589,0,0,0,0
1896.0919176,-0.052382341283667581,-0.38862726088233918,0.93215380119751967,1.29036814507723,0,0,0,0
1896.1081260000001,-0.055138326130375635,-0.26518132134787326,0.94264821267001064,1.2241567686238024,0,0,0,0
1896.1246785999999,-0.056867411723364632,-0.14216622746163271,0.95259095351055723,1.1579669522764195,0,0,0,0
1896.1411788,-0.057572431508574481,-0.019388118280536496,0.96198216578030049,1.0917890405063759,0,0,0,0
1896.1581885999999,-0.058294286101652527,-0.16284198362870753,0.97134257501685106,1.1589046355214514,0,0,0,0
1896.1749949,-0.060212293411903539,-0.30651161195951476,0.98126230789591928,1.226028506197707,0,0,0,0
1896.191597,-0.063329035036161635,-0.45059739028883478,0.9917414630452337,1.2931681949576754,0,0,0,0
1896.2073365000001,-0.066609605912698419,-0.32926114859327493,1.0022595864811488,1.2270546517268777,0,0,0,0
1896.2236201999999,-0.06888127158276304,-0.20846189732710685,1.0122268768790685,1.1609683848147125,0,0,0,0
1896.2407188,-0.070147757817297818,-0.088007753634390312,1.0216435239577164,1.0948997379831273,0,0,0,0
1896.2572425999999,-0.070411189484922074,0.032293599096942335,1.0305096363131621,1.028838903214367,0,0,0,0
1896.2731094000001,-0.070710758607468643,-0.11329677775108468,1.0393458213032996,1.0960462104783655,0,0,0,0
1896.2896243,-0.072224003690932195,-0.25903098157279114,1.0487420826179494,1.1632587723970542,0,0,0,0
1896.3049180999999,-0.074952907233117497,-0.40510952860159227,1.0586984925699092,1.2304838489196459,0,0,0,0
1896.3218812,-0.07786297579658516,-0.28595387850994142,1.0686946529733414,1.1644738709256741,0,0,0,0
1896.3377195999999,-0.079782056665180304,-0.16727039400303606,1.0781408320880908,1.098488252703266,0,0,0,0
1896.3544082000001,-0.080713340477039291,-0.048868517889652165,1.0870371948273716,1.0325172171711716,0,0,0,0
1896.3706061,-0.081696106219179832,-0.19623104839903471,1.0959043210466266,1.0997990905064083,0,0,0,0
1896.3870323000001,-0.083907748880246436,-0.34384811857840925,1.105332159490015,1.1670898584853002,0,0,0,0
1896.4036357,-0.086313908949869539,-0.22636627235404883,1.1148003540417721,1.1011603309582862,0,0,0,0
1896.4193946,-0.087742663962047079,-0.10926312625830877,1.1237192198187462,1.0352505581688178,0,0,0,0
1896.4352696999999,-0.088196429416251956,0.0076508939307754842,1.1320888829565889,0.96935066815074322,0,0,0,0
1896.4513592999999,-0.088712946414088931,-0.1409130561147674,1.140429820766057,1.0366831155407394,0,0,0,0
1896.4678656999999,-0.090468051087100626,-0.28965447698789926,1.1493318810529154,1.1040215627932941,0,0,0,0
1896.4842825999999,-0.093464003099125864,-0.43877302307341065,1.1587951399736403,1.1713726543329421,0,0,0,0
1896.5010086,-0.096668558631275672,-0.32320223851880364,1.1682993646777928,1.1055317413619006,0,0,0,0
1896.5170668000001,-0.098912261609047092,-0.20817108509981136,1.1772550328860691,1.0397192610578909,0,0,0,0
1896.5340858,-0.1001988778016807,-0.093492319819200947,1.1856623434047149,0.97392542326224107,0,0,0,0
1896.5508165000001,-0.10053061137348737,0.021021588208097748,1.1935214129220961,0.90814031363950731,0,0,0,0
1896.5674294,-0.10094356473319249,-0.1295510521972924,1.2013525893338308,0.97555580236360429,0,0,0,0
1896.5829156,-0.1026117742563155,-0.28028298506754123,1.2097455768436514,1.0429763514241226,0,0,0,0
1896.6001722999999,-0.10450225683874563,-0.1663764959375052,1.2181801655903766,0.9772184170541437,0,0,0,0
1896.6168402999999,-0.10544476137256456,-0.052755089233599138,1.2260668376668886,0.91147565351044324,0,0,0,0
1896.6326690999999,-0.10544093435959287,0.060767929207491952,1.2334056806891449,0.84573811489455875,0,0,0,0
1896.6496314999999,-0.10552571348655307,-0.090575026025648486,1.2407169632293982,0.91318516235614111,0,0,0,0
1896.6659523000001,-0.10687196322128478,-0.24202480859244987,1.2485903130416116,0.98063550212547967,0,0,0,0
1896.6823069,-0.109481351970917,-0.3937804573560959,1.2570257817048078,1.0480952732197899,0,0,0,0
1896.6989721,-0.11232307027662107,-0.28129607139787166,1.26550327664873,0.98240277971024059,0,0,0,0
1896.7145172,-0.11422940737553401,-0.16928810381431186,1.2734334406009487,0.91673580559685675,0,0,0,0
1896.7317552,-0.11520361214129644,-0.057571864821176641,1.2808164478300113,0.85108450094828492,0,0,0,0
1896.7482864000001,-0.11524739360255776,0.054037507747579913,1.287652390128234,0.78543892571707352,0,0,0,0
1896.7644534999999,-0.11539442081096926,-0.098884413424116122,1.2944614285798619,0.85294980369594742,0,0,0,0
1896.7813615,-0.11681611303937713,-0.25192234098043992,1.3018330668021418,0.92046405697556322,0,0,0,0
1896.7977863999999,-0.11848106362123018,-0.14077507910533951,1.3092472400355697,0.8548389683499501,0,0,0,0
1896.8134428999999,-0.11922087213361575,-0.029873008550050161,1.3161145960303053,0.78922709871027785,0,0,0,0
1896.8302940000001,-0.11903686265677137,0.080967993319888631,1.3224352061173859,0.72361850046471765,0,0,0,0
1896.8472460999999,-0.11896178582619266,-0.072540867554364535,1.3287291668853582,0.79115288436366538,0,0,0,0
1896.8641399000001,-0.12016612968288297,-0.22613101127005047,1.3355859191559376,0.85868956002078867,0,0,0,0
1896.8809965999999,-0.12161868280364635,-0.11562412838245027,1.3424854284480965,0.79309570667020179,0,0,0,0
1896.8980604999999,-0.12215126835727594,-0.0053210643089800511,1.3488383721932806,0.72751286846998675,0,0,0,0
1896.9142515000001,-0.12176486782569579,0.10496174230420743,1.3546448033378031,0.66193109520550597,0,0,0,0
1896.9302967000001,-0.12149149693874019,-0.048965080584091283,1.360424767861433,0.72948208419486504,0,0,0,0
1896.9460709,-0.12250090986426911,-0.20294246539265559,1.3667676587421378,0.79703444811689983,0,0,0,0
1896.9631743,-0.12376198241544832,-0.09287875519894967,1.373153461542278,0.73146228064216101,0,0,0,0
1896.9802512000001,-0.12410663319348876,0.017018781315978782,1.3789928716127087,0.6658991052358274,0,0,0,0
1896.9968960000001,-0.12353553147183133,0.12693331725301527,1.3842859250311299,0.6003349712402386,0,0,0,0
1897.0132553999999,-0.12308012447178063,-0.027259997945819348,1.389552630040582,0.66789645105249373,0,0,0,0
1897.0292442,-0.12390961255547109,-0.18147582410417318,1.3953823457069043,0.73545849618823445,0,0,0,0
1897.0462491000001,-0.12499284466724721,-0.071674201746407679,1.4012550673209316,0.66989923874571833,0,0,0,0
1897.0627311999999,-0.12516170121911213,0.037996499770287732,1.4065814963436392,0.60434706650759085,0,0,0,0
1897.0789032,-0.12441655855823332,0.14771923326593289,1.4113616529556425,0.53879202894916545,0,0,0,0
1897.0945340000001,-0.12378844666062673,-0.0066002163912256603,1.4161155196451394,0.60635837857594754,0,0,0,0
1897.1114316999999,-0.12444617720441128,-0.16091560425041565,1.4214324346534564,0.67392454143388214,0,0,0,0
1897.1270377000001,-0.12535845169045484,-0.051204584743225277,1.4267923925529025,0.60836988212571397,0,0,0,0
1897.1430553,-0.12535697229826212,0.058409641177034517,1.4316060889403843,0.54282045410320445,0,0,0,0
1897.1596887999999,-0.12444183118675935,0.16810997064789154,1.4358735285400634,0.47726630673518106,0,0,0,0
1897.1754728999999,-0.1236437796491639,0.013799469097077209,1.4401146793571253,0.54483213625811833,0,0,0,0
1897.1917042,-0.12413139360319522,-0.14048076163692397,1.4449188712694574,0.61239703997899242,0,0,0,0
1897.2085655999999,-0.12487309859860676,-0.030692231379080955,1.4497660874173515,0.54683883260908528,0,0,0,0
1897.2249308999999,-0.12470027014011416,0.07903374104452035,1.4540670052098084,0.48128399283444301,0,0,0,0
1897.2412819000001,-0.12361271465484962,0.18888016074460695,1.4578216138313176,0.41572256947199165,0,0,0,0
1897.2580055000001,-0.12264103307349786,0.034713986110206679,1.4615498775638289,0.48328247273863778,0,0,0,0
1897.2743773,-0.12295370898089306,-0.11939497742694354,1.4658411299785801,0.55084068104476691,0,0,0,0
1897.2909125000001,-0.12351875340392737,-0.0093580711926637104,1.470175331622666,0.48527065078383558,0,0,0,0
1897.3071433,-0.12316705577603311,0.10065185937117375,1.4739631288263515,0.41970205150726447,0,0,0,0
1897.3238649,-0.12189812492526482,0.2108180926733057,1.4772044946259859,0.35412493139364293,0,0,0,0
1897.3393467000001,-0.12074253163811144,0.056937502575975275,1.4804194000150162,0.42167323844787152,0,0,0,0
1897.3558407,-0.12086880337417188,-0.096857073004199379,1.4841971941065213,0.48921900552929909,0,0,0,0
1897.3729432,-0.12227699845966733,-0.25076404764525922,1.4885378779906862,0.55676792701272448,0,0,0,0
1897.3886791,-0.12393649389997478,-0.14069132028511303,1.492921452081847,0.49119455182937877,0,0,0,0
