Time,Theta,ThetaDot,X,XDot,Out1,Out2,Out3,Out4
1550.0464896000001,0.13623086014615579,0.024368470048952394,-4.2862440884964778e-06,-0.0010973960856339999,0,0,0,0
1550.0624737000001,0.13704430476000681,0.18064489579050372,-0.00027765910352094153,-0.068740255866176186,0,0,0,0
1550.0795995999999,0.1381307790535555,0.073446358888915653,-0.0005948861348017495,-0.0033066773744026227,0,0,0,0
1550.096532,0.1383245833487384,-0.033617393083423909,-0.00036686897685894818,0.062119531486315209,0,0,0,0
1550.1122455,0.13762613700098747,-0.14072654540492671,0.00040636962844099787,0.12754827235030972,0,0,0,0
1550.1281852,0.13603435791903357,-0.24806124754584741,0.0017248894325494508,0.19298943360974224,0,0,0,0
1550.1455043000001,0.1335466631094949,-0.35580154903853123,0.0035888323912477323,0.25845284445516781,0,0,0,0
1550.1617146999999,0.13118978753825969,-0.20018303369886481,0.005478483443569976,0.19083916917548871,0,0,0,0
1550.1782386,0.13012855474814938,-0.044831297999388821,0.0068047188473232493,0.12323268839368727,0,0,0,0
1550.1944092000001,0.12933027972890884,-0.15357699668191632,0.0080875424555282641,0.18874063255049264,0,0,0,0
1550.2104313,0.12762495684029387,-0.26256832418967252,0.0099163112330583076,0.25426201070220616,0,0,0,0
1550.2263943,0.12500982912297012,-0.37198702236816239,0.012291175659796547,0.31980666964883347,0,0,0,0
1550.2429294999999,0.12251281005267443,-0.21772087054310491,0.014692316375814125,0.25224641898618988,0,0,0,0
1550.2586526,0.12130006257572011,-0.063747364327864015,0.016530491357607056,0.18469451303227666,0,0,0,0
1550.2749239,0.12033730397433899,-0.17425221519219655,0.018325827875207947,0.25028749643191395,0,0,0,0
1550.2909133000001,0.11845271150098126,-0.28503536209136576,0.020667824714238087,0.31589557708662014,0,0,0,0
1550.3067942,0.11564324923334282,-0.39628026064505195,0.023556646223874041,0.38152860083439655,0,0,0,0
1550.3240284999999,0.11293793565148653,-0.24351862645255223,0.026472371124227408,0.31402876068864266,0,0,0,0
1550.3409153,0.11150420893797201,-0.091087192373679585,0.028825640214680027,0.24653887419185458,0,0,0,0
1550.3569892,0.11134009217302394,0.061212570909888984,0.030616513593600774,0.17905304535643735,0,0,0,0
1550.3727838,0.11141126061174778,-0.05115161340507117,0.032365192874555103,0.24473492807908606,0,0,0,0
1550.3897936999999,0.11054590417108348,-0.16358877971362837,0.034661229726189006,0.31042076523579137,0,0,0,0
1550.4066501,0.10874268967120941,-0.27628450302930285,0.037504696007217488,0.37612050674249142,0,0,0,0
1550.4226988,0.10599873817550723,-0.38942415438560757,0.040895746199539576,0.44184401667351203,0,0,0,0
1550.4387462,0.10334452281862054,-0.23820732566819369,0.044314341277776316,0.3744061672112397,0,0,0,0
1550.4546161999999,0.10194903090667252,-0.087318020451092798,0.047170999152090165,0.30697872388570863,0,0,0,0
1550.4713414,0.10181031055338854,0.063442977275698531,0.049465782302949332,0.23955543769464793,0,0,0,0
1550.4875058,0.10189280269543018,-0.050780151430824164,0.051718996842448073,0.30532655707467726,0,0,0,0
1550.5039718999999,0.10102328509506844,-0.16507494957122049,0.05452031216859806,0.37110152271082131,0,0,0,0
1550.5204206999999,0.099200428680699476,-0.27962873676747418,0.057869799236279586,0.43689028317425477,0,0,0,0
1550.5375828000001,0.096421344202450909,-0.39462859410692847,0.061767611589074595,0.50270269426428371,0,0,0,0
1550.5542868,0.093717675817447263,-0.24497132836736479,0.06569361058673423,0.43532859880315833,0,0,0,0
1550.5714856,0.092259682383792382,-0.095654843390824404,0.069058207583436504,0.36796585573885199,0,0,0,0
1550.5879437000001,0.09204530350706383,0.05352058196734398,0.071861471681906541,0.30060789205323413,0,0,0,0
1550.6047458,0.092037691847659156,-0.062604472660466648,0.074623811531215459,0.36647002153299651,0,0,0,0
1550.6215314999999,0.091062149887632879,-0.1788197176971158,0.077935014243419462,0.43233693082440811,0,0,0,0
1550.6383278000001,0.08911718764119253,-0.29531414791381455,0.081795158471513155,0.49821854551573386,0,0,0,0
1550.6551849,0.086199741186349654,-0.41227646268749596,0.086204405211292745,0.5641246834068715,0,0,0,0
1550.6711003,0.083342420814358387,-0.26431080623721276,0.090642527538827539,0.49682089543302682,0,0,0,0
1550.6866739,0.081716557987231264,-0.11671676601523299,0.094519840258700097,0.42953006903459445,0,0,0,0
1550.7036458,0.081319836619480224,0.030705716998211518,0.097836424665321262,0.36224531586395237,0,0,0,0
1550.7202953000001,0.081113989519291552,-0.087502687825212741,0.10111279639902294,0.42820679043182291,0,0,0,0
1550.7366006,0.079922698914849225,-0.20584048784378278,0.10493886661961982,0.49417502078997388,0,0,0,0
1550.7534605000001,0.077744141470368844,-0.32449836520182951,0.10931473025310839,0.56015987903470554,0,0,0,0
1550.7705410999999,0.074574906191302442,-0.44366661354702164,0.11424056402591441,0.6261711034192361,0,0,0,0
1550.7870404,0.07144839996609556,-0.29765600892648869,0.11919606033391722,0.55894982946209992,0,0,0,0
1550.8025857,0.069536857875000829,-0.15206854511579593,0.12359144466932205,0.4917440283633987,0,0,0,0
1550.8196132999999,0.068837534860724359,-0.0067040380229175505,0.12742681803432146,0.42454649334241612,0,0,0,0
1550.8365656000001,0.068310556918790316,-0.12732528193204248,0.13122281168687197,0.49062254916661918,0,0,0,0
1550.8531875000001,0.066777787496100499,-0.24813793001529857,0.13556947067269232,0.55670841820397077,0,0,0,0
1550.8702863999999,0.064236879672112168,-0.36933439358708409,0.14046691501578973,0.62281386856911269,0,0,0,0
1550.8865625999999,0.061723149220659593,-0.22501162425585297,0.14539471093874998,0.55566289807940117,0,0,0,0
1550.9030733,0.060410693160404455,-0.081015698243644518,0.14976296917344412,0.48852436025992996,0,0,0,0
1550.9193762,0.060297571817533153,0.062854237250048614,0.15357176383712573,0.42139066967801447,0,0,0,0
1550.9357439,0.060344047359141485,-0.059334431565632992,0.15734175165886233,0.48754066049389938,0,0,0,0
1550.9522073999999,0.059372097480205062,-0.18160517765130618,0.16166299892814731,0.55369482629682509,0,0,0,0
1550.9687105999999,0.057380281209041886,-0.30415174200516815,0.16653557866373142,0.61986293795094083,0,0,0,0
1550.9857234999999,0.054365544521765001,-0.42716744134072904,0.17195964485377821,0.68605463342276973,0,0,0,0
1551.0027075,0.05136321803489334,-0.28456365456338417,0.17741473587876525,0.61897828033041569,0,0,0,0
1551.0196358000001,0.04954749709042628,-0.14237485281535911,0.18231092633046089,0.55191824669661338,0,0,0,0
1551.0364632999999,0.048915706066087826,-0.00040050515146149331,0.18664832195213651,0.48486673959556342,0,0,0,0
1551.0523089999999,0.048426579828104777,-0.12477766397748355,0.19094767565358031,0.55111967166732567,0,0,0,0
1551.0694844,0.046900394508243244,-0.24933857422950653,0.19579916616894583,0.61738175328852429,0,0,0,0
1551.0856091999999,0.044334856899184233,-0.37427820831927455,0.20120290738711141,0.68366259516220018,0,0,0,0
1551.1024202999999,0.041766639605905924,-0.23336073008006114,0.20663834926455266,0.61665870841743176,0,0,0,0
1551.1183272999999,0.040371242852404864,-0.092789663606188982,0.21151548590632283,0.54966889130572361,0,0,0,0
1551.1344296,0.040146563758329465,0.047635803719918476,0.21583440304373469,0.48268503985429267,0,0,0,0
1551.1514159000001,0.040051430175061818,-0.078343511838633514,0.22011587090308929,0.54901283112762589,0,0,0,0
1551.1682333000001,0.038906175649498782,-0.20443267361845585,0.22495008480688508,0.61534602517146875,0,0,0,0
1551.1845455,0.036709118472640745,-0.33082779135963425,0.23033712723823666,0.68169419159633671,0,0,0,0
1551.2003919000001,0.034497903592313778,-0.19120167339709837,0.23575638655155393,0.6147464822880635,0,0,0,0
1551.2171805999999,0.033448974223000173,-0.051863996596226765,0.24061780079775857,0.54781075768440624,0,0,0,0
1551.2339336,0.032519645220014659,-0.17915852060225809,0.245442217574912,0.61419993514756377,0,0,0,0
1551.2497530000001,0.030528629716565274,-0.30671796840726123,0.25081992106283973,0.68060194049187772,0,0,0,0
1551.2665919000001,0.027472952487929823,-0.43473869986563612,0.2567510548810864,0.74702613744503921,0,0,0,0
1551.2821801,0.024389333337508493,-0.2967991892881513,0.26271503579007166,0.68015358024890327,0,0,0,0
1551.2990712000001,0.022453331674713865,-0.15930523551506703,0.26812182524968903,0.61330000053865319,0,0,0,0
1551.3154391999999,0.021662015093436994,-0.022056838742392303,0.27297154867735701,0.54645697340202271,0,0,0,0
1551.3319733999999,0.020972653492221546,-0.15150015676435588,0.27778507377600331,0.61294553665779539,0,0,0,0
1551.3483974000001,0.019203877138385991,-0.281162951510667,0.28315270442762175,0.67944450652691302,0,0,0,0
1551.3643184,0.016353084766371557,-0.41124280727102874,0.28907456361088046,0.74596313032595329,0,0,0,0
1551.3812413000001,0.013457646215038283,-0.27524890970577731,0.29503002373211212,0.6791769163563115,0,0,0,0
1551.3977662,0.011693715725279904,-0.13967397523806238,0.30042900972823905,0.61240906716565147,0,0,0,0
1551.4138521,0.011058581554571513,-0.0043182729465248287,0.30527164087854464,0.54565089956513768,0,0,0,0
1551.4307613999999,0.010509516125414035,-0.13568328822730721,0.31007879457936288,0.61222776648500887,0,0,0,0
1551.4476554,0.008865125579994847,-0.26724137329553993,0.31544078416290655,0.67881359819976039,0,0,0,0
1551.4642214,0.0061230251526621761,-0.39919102348311281,0.32135772004747093,0.74541750331818568,0,0,0,0
1551.4806123999999,0.0033209222957320123,-0.26501169591909468,0.32730895110121794,0.67871266502872829,0,0,0,0
1551.4972256999999,0.0016352489249550556,-0.1312404366921914,0.33270438616165643,0.61202615358160817,0,0,0,0
1551.5130869,0.0010633823653629505,0.0023220287963457587,0.33754414337541622,0.54534908020739037,0,0,0,0
1551.5289479,0.00056260443354182274,-0.13084564074105565,0.34234910364868415,0.61200821559411833,0,0,0,0
1551.5453023,-0.0010484835985893257,-0.26419699711717576,0.34770958306856525,0.6786756967761457,0,0,0,0
1551.5612106999999,-0.003772191002269045,-0.39793122069666798,0.35362568626281815,0.74536046972148107,0,0,0,0
1551.5770734,-0.0065707398133216591,-0.26553043400787757,0.35957675571171821,0.67873605811653992,0,0,0,0
1551.5929458999999,-0.0082676986553449471,-0.13354251973769765,0.36497270194301001,0.612130596149559,0,0,0,0
1551.6088918999999,-0.0088657326895502063,-0.0017688387863335625,0.36981364762447927,0.54553502522178421,0,0,0,0
1551.6257877999999,-0.0094075595178454464,-0.13671896569719785,0.37462047274437565,0.61227491262345468,0,0,0,0
1551.6418839999999,-0.011074575742805645,-0.27185939852005386,0.37998349046062346,0.67902324482978205,0,0,0,0
1551.6579268999999,-0.013869147809430469,-0.40738982083663089,0.38590280547705341,0.74578877330412408,0,0,0,0
1551.6736980000001,-0.01675368494200349,-0.27682738768219833,0.39185777005712857,0.67924805953877199,0,0,0,0
1551.6896727000001,-0.018552034172525971,-0.14669908406307353,0.39725831442412401,0.61272768380799691,0,0,0,0
1551.7056474999999,-0.01926704111017254,-0.016807118805442944,0.40210457225560431,0.54621844375804018,0,0,0,0
1551.7216298000001,-0.018899900914641801,0.11304678349759273,0.40639659990388122,0.4797109951222881,0,0,0,0
1551.7382585,-0.01849169921239505,-0.023606194187604675,0.41065519566745995,0.54652745054524332,0,0,0,0
1551.7542879,-0.019222219858937996,-0.16028128735982453,0.41547059291351895,0.61334485835650232,0,0,0,0
1551.7715765,-0.02109243095097732,-0.29717908415148742,0.42084283356789176,0.68017190319309351,0,0,0,0
1551.7879461,-0.023063511965658142,-0.16785903494068716,0.42625122034705853,0.61368861946272468,0,0,0,0
1551.8037294999999,-0.02395811625837764,-0.038808720679635214,0.43110563628030152,0.54721815088466741,0,0,0,0
1551.8208147,-0.023777719132803792,0.090169673503461806,0.43540615152936402,0.48075110239552882,0,0,0,0
1551.8373882000001,-0.023563559874361224,-0.047359760974399159,0.43967356687002923,0.54760674274256527,0,0,0,0
1551.8539929999999,-0.024495561393741001,-0.18494580269910724,0.44449811602782724,0.61446479889211347,0,0,0,0
1551.8696207,-0.026574979708891902,-0.3227891451924067,0.44987985265258562,0.68133382973883738,0,0,0,0
1551.8868296000001,-0.028763454311833688,-0.194494510788493,0.45529810482958671,0.61489769849457498,0,0,0,0
1551.9023984,-0.029884162579027481,-0.066512036725970225,0.46016278758873919,0.54847654800940671,0,0,0,0
1551.9195827999999,-0.029938935885422506,0.061355456894487632,0.46447398893621411,0.48206092769774872,0,0,0,0
1551.9356190999999,-0.029969166665545111,-0.077275077942679016,0.46875250955295789,0.54896554954729848,0,0,0,0
1551.9512987000001,-0.03115490145059463,-0.21600509533295711,0.47358857914717151,0.61587434730141244,0,0,0,0
1551.9684582,-0.033497753882925634,-0.35503534659019886,0.47898226539240657,0.68279570828924485,0,0,0,0
1551.9852258000001,-0.03595999278545841,-0.22804196283231751,0.48441293218539377,0.61641954508956676,0,0,0,0
1552.0013451,-0.037365519540500221,-0.10141477318532555,0.4892905402862735,0.55006116870976318,0,0,0,0
1552.0172868,-0.037716619312076413,0.025042517312299707,0.49361520088089844,0.48371107193516555,0,0,0,0
1552.0339727,-0.037013940102694771,0.15152649060143547,0.4973869455007171,0.41735965716993018,0,0,0,0
1552.0501260000001,-0.03629741420164985,0.011723649772166139,0.50112649465228765,0.48431601527552542,0,0,0,0
1552.0672145999999,-0.036745657536179019,-0.12804969292774221,0.50542400286211964,0.55127113611264145,0,0,0,0
1552.0835965000001,-0.038359210275337334,-0.26799470643723977,0.51027949231041292,0.61823332659132857,0,0,0,0
1552.1006261,-0.040099484854610394,-0.14184162079507304,0.51517229839689127,0.55189678952854615,0,0,0,0
1552.1173022999999,-0.040789530528818924,-0.015921797931552878,0.51951235123497508,0.48557167161498405,0,0,0,0
1552.1336977000001,-0.040430524904262438,0.10996096046440061,0.52329970847913831,0.41924835916790537,0,0,0,0
1552.1495497000001,-0.040062763267467348,-0.030463116430313526,0.52705510214750195,0.48623213078474453,0,0,0,0
1552.1656306,-0.040865184317725227,-0.17091824434188299,0.53136869310330581,0.55321715347632683,0,0,0,0
1552.1818404000001,-0.042838832752510513,-0.31160554420382425,0.53624052384217946,0.62021161730780272,0,0,0,0
1552.1978392999999,-0.044945862665457921,-0.18631779235166981,0.54114996942593574,0.55391506942936275,0,0,0,0
1552.2137927000001,-0.046010149781647636,-0.061333834441187375,0.54550700893319359,0.48763350531170585,0,0,0,0
1552.2308361,-0.046033462265071538,0.063541830686991554,0.54931172965572383,0.42135728780194531,0,0,0,0
1552.2465712999999,-0.04605638333973492,-0.077881440597574653,0.55308486694639358,0.48838486574177969,0,0,0,0
1552.2639227,-0.04725807619015715,-0.21940295109426594,0.55741657712147297,0.55541636484345991,0,0,0,0
1552.2797868,-0.048599818764597208,-0.094875246912840036,0.56178620829850301,0.48915597407776379,0,0,0,0
1552.2970141999999,-0.048904595094255522,0.029491291229111365,0.56560370748693622,0.42290357843625809,0,0,0,0
1552.3128091999999,-0.048172985304286785,0.15389198659071424,0.56886910339427177,0.35664946547044662,0,0,0,0
1552.3289056000001,-0.047444276822345616,0.012161581045662236,0.57210306419946455,0.42369031019078002,0,0,0,0
1552.3448997999999,-0.047896398873923607,-0.129538902797081,0.57589568838021232,0.4907299359617453,0,0,0,0
1552.3610498,-0.049529888581513484,-0.2714107549450388,0.58024699719162276,0.55777637325822671,0,0,0,0
1552.3770199999999,-0.051306780770307842,-0.14734600794782032,0.58463637546843306,0.49153729146194286,0,0,0,0
1552.3939577000001,-0.052050888247211581,-0.023525347099121033,0.58847381559503686,0.42531037066508615,0,0,0,0
1552.409887,-0.051763483956921652,0.10024610797765626,0.59175938099611292,0.35908589160078597,0,0,0,0
1552.4265488999999,-0.051484319443826004,-0.042136624370822606,0.59501375458324457,0.42615524761467738,0,0,0,0
1552.4426865999999,-0.052391721836109087,-0.18456631370039595,0.59882704111354468,0.49322643073782746,0,0,0,0
1552.4586981,-0.053446859173733693,-0.060976423838253933,0.60267859703834381,0.42701018208386193,0,0,0,0
1552.4750164,-0.053472638551457036,0.062505158410639791,0.60597837875663396,0.36079934047576973,0,0,0,0
1552.4912526999999,-0.05246920173186926,0.18607319724651239,0.60872639321259225,0.29458414802479738,0,0,0,0
1552.5078911000001,-0.05147514092680118,0.04362760005183642,0.61144326522298087,0.36165597439734648,0,0,0,0
1552.5243519999999,-0.051667697062033419,-0.098743648653439278,0.61471905207573985,0.42872484313915676,0,0,0,0
1552.5402988999999,-0.053047037123634941,-0.24124188737804814,0.61855376014445262,0.49579869094063977,0,0,0,0
1552.557556,-0.054575049661627441,-0.11781603579520612,0.62242677715306749,0.42958978784922941,0,0,0,0
1552.5735520000001,-0.055075421858473299,0.005411695717612029,0.62574809877678805,0.36339080333601109,0,0,0,0
1552.5895011,-0.054549044853564072,0.12863585503686276,0.62851776958325789,0.29719197877631554,0,0,0,0
1552.6061070999999,-0.054035112923710528,-0.014204204666091876,0.63125643890256788,0.3642811185195422,0,0,0,0
1552.6225156,-0.054711404366325996,-0.15705164840795402,0.63455417996067887,0.43137052048503921,0,0,0,0
1552.6379875,-0.056578767040102028,-0.30010770403931064,0.63841102564148777,0.49846802604865237,0,0,0,0
1552.6550334000001,-0.058600025116657267,-0.17738905060496973,0.64230641138995181,0.43229179354552283,0,0,0,0
1552.6716764,-0.059599906627701781,-0.054963488895741229,0.64565039289813664,0.36613031872406876,0,0,0,0
1552.6883401,-0.05958009694502981,0.067362835134919308,0.64844305507840383,0.29997384002026911,0,0,0,0
1552.7045499000001,-0.058540665314491272,0.18978389837656581,0.65068440125836358,0.23381255110806209,0,0,0,0
1552.7205156,-0.057519721912668458,0.046304667283659853,0.65289501788294158,0.3009290740211229,0,0,0,0
1552.7371742,-0.057693996147372258,-0.097096902660561965,0.655664921654739,0.36804256771397476,0,0,0,0
1552.7535163,-0.059063627301004638,-0.24062212636319932,0.65899411771504723,0.43516080654226474,0,0,0,0
1552.7693051000001,-0.060590902182429671,-0.11832983070735992,0.6623620269799807,0.36900517605012451,0,0,0,0
1552.7852713,-0.061099989274907861,0.0037626064271043822,0.66517868550910808,0.30285963780309016,0,0,0,0
1552.8021033,-0.06059179725642793,0.12584895058208923,0.66744413913665857,0.23671438709149661,0,0,0,0
1552.8185102,-0.060105112210537048,-0.018021838124481483,0.66967900221687326,0.30384804007397975,0,0,0,0
1552.83511,-0.060817260251774342,-0.16190520134937983,0.67247330883400158,0.37098214456796275,0,0,0,0
1552.8513209,-0.061689719030143995,-0.039887392930038575,0.675306452765848,0.30483995867739938,0,0,0,0
1552.867735,-0.061545791369962979,0.082054988459330819,0.6775884334652984,0.23870157618337962,0,0,0,0
1552.8834976999999,-0.060385349147439461,0.20411564434320117,0.67931924425863854,0.17255717684242763,0,0,0,0
1552.9002664,-0.059246174880854208,0.060332574505022815,0.68101945071795844,0.23968670459069552,0,0,0,0
1552.9161134999999,-0.059304674035108085,-0.083353317913298697,0.68327904987630661,0.30681247119324911,0,0,0,0
1552.9333311,-0.060560823176700834,-0.22714333967308006,0.68609804058773616,0.37394220603266454,0,0,0,0
1552.9495775,-0.061976856733497648,-0.10512431988608713,0.68895584623825123,0.3077995502928671,0,0,0,0
1552.9657583000001,-0.062376898576805985,0.016715609084195039,0.69126250525609523,0.24166595443685035,0,0,0,0
1552.9820443000001,-0.061761684923584366,0.13857005282516827,0.6930180548127548,0.17553160023736739,0,0,0,0
1552.9980301000001,-0.06013033858579294,0.26063257507088672,0.69422245023365348,0.10938667831532611,0,0,0,0
1553.0142209000001,-0.058519925473202658,0.11693124449117548,0.69539622258690059,0.176512265338264,0,0,0,0
1553.0307588999999,-0.058106194465286733,-0.026593477484814783,0.69712934285015649,0.24363102867731853,0,0,0,0
1553.0464475000001,-0.058888459872284173,-0.17014286405284873,0.69942178437144487,0.31075071435321377,0,0,0,0
1553.0626175,-0.059828156599165322,-0.047766508755336987,0.70175293314684173,0.24459159418554763,0,0,0,0
1553.0785437,-0.059748527644206517,0.074522007987103761,0.70353277997409291,0.17843689539588115,0,0,0,0
