Time,Theta,ThetaDot,X,XDot,Out1,Out2,Out3,Out4
2361.5088556999999,0.48202953995760367,0.081586101867341096,-1.2835619958195976e-05,-0.003285936365895175,0,0,0,0
2361.5245708000002,0.48257662441347848,0.047611220528008959,0.00020187560311772339,0.058689045312920567,0,0,0,0
2361.5414231999998,0.48284098759565874,0.013728325507353171,0.00093302494376011689,0.12065944617612702,0,0,0,0
2361.5580605999999,0.48282315106835549,-0.02012527874796069,0.0021805864651691818,0.18262839724888941,0,0,0,0
2361.5749532,0.48252311425811784,-0.054012225395738279,0.0039445602989846007,0.24459902509932446,0,0,0,0
2361.5915371999999,0.48194035451333578,-0.087995203071459568,0.0062249726421716575,0.30657446054928572,0,0,0,0
2361.6086094000002,0.48107382618143951,-0.12213707378617131,0.0090218758264925206,0.36855784738460123,0,0,0,0
2361.6254552999999,0.47992195870320525,-0.15650099094607819,0.01233534846057188,0.43055235106814471,0,0,0,0
2361.6419096999998,0.47848265372279347,-0.19115051758506746,0.016165495644590241,0.49256116745794654,0,0,0,0
2361.6577467000002,0.4767532812114178,-0.22614974489166412,0.020512449257649418,0.55458753153056706,0,0,0,0
2361.6744592,0.47473067460191731,-0.26156341109796316,0.025376368317846159,0.61663472610711434,0,0,0,0
2361.6909165000002,0.47241112493100679,-0.297457020779551,0.030757439415053801,0.67870609057550468,0,0,0,0
2361.7071566,0.46979037398566631,-0.33389696459183277,0.036655877216340685,0.74080502959775774,0,0,0,0
2361.7233405000002,0.46686360645002339,-0.37095063943891576,0.043071925043837965,0.80293502178513332,0,0,0,0
2361.7395175000001,0.46362544104925135,-0.40868656903551298,0.050005855524698772,0.86509962831663234,0,0,0,0
2361.7558042999999,0.46006992068749886,-0.44717452477933289,0.057457971312553438,0.92730250146758619,0,0,0,0
2361.7715198999999,0.45619050157774699,-0.48648564680004086,0.065428605879548254,0.98954739300454186,0,0,0,0
2361.7882820999998,0.45198004136283937,-0.52669256498986339,0.073918124377643377,1.0518381623901647,0,0,0,0
2361.8046027999999,0.44743078622882465,-0.56786951974880806,0.082926924567319885,1.1141787847270932,0,0,0,0
2361.8209824999999,0.4425343570143041,-0.61009248209259048,0.092455437811188368,1.1765733583522873,0,0,0,0
2361.8372137000001,0.43728173432278145,-0.65343927267176594,0.10250413012917602,1.2390261119729804,0,0,0,0
2361.8535356000002,0.4316632426492224,-0.69798967913403809,0.11307350331097189,1.3015414112114418,0,0,0,0
2361.8694482999999,0.42566853353727679,-0.74382557112574388,0.12416409608019641,1.3641237643978499,0,0,0,0
2361.8867234999998,0.41928656779008966,-0.79103101207023652,0.13577648530329911,1.4267778274181044,0,0,0,0
2361.9036540000002,0.41250559676550846,-0.83969236667714342,0.14791128723443539,1.489508407385699,0,0,0,0
2361.9204098,0.40531314279602271,-0.88989840292368227,0.16056915878548261,1.552320464863131,0,0,0,0
2361.9368325999999,0.39769597878519497,-0.94174038700348384,0.17375079880787669,1.6152191143079264,0,0,0,0
2361.9528423000002,0.38964010704596286,-0.99531216945542655,0.18745694937002189,1.6782096223603851,0,0,0,0
2361.9685184999998,0.38208193200306767,-0.8069915369591355,0.20117480219885178,1.6097910764677816,0,0,0,0
2361.9848444999998,0.37609062410377592,-0.61928115448822085,0.21432233225628672,1.5413316154979517,0,0,0,0
2362.0006263999999,0.37070482011317119,-0.6771238173794919,0.22741324751646808,1.6044432963942787,0,0,0,0
2362.0184386999999,0.36483222890717953,-0.73620510977279796,0.24103035424426711,1.6676227826265042,0,0,0,0
2362.0343877999999,0.35846211186286708,-0.79663204687373379,0.25517424060856225,1.7308760129082894,0,0,0,0
2362.0512742999999,0.35158283099284809,-0.85851359981274766,0.26984554468143357,1.7942090314995462,0,0,0,0
2362.0679288000001,0.34418183227260657,-0.92196078861405084,0.2850449553045355,1.8576279842548262,0,0,0,0
2362.0838982,0.33624562825387766,-0.98708675909013799,0.3007732129090514,1.921139111110947,0,0,0,0
2362.0997391000001,0.32873368454705076,-0.80449627238535992,0.31651573477220096,1.8527892593141759,0,0,0,0
2362.1172955000002,0.32274048496237034,-0.6226082288784911,0.33168856778518563,1.7844135791561009,0,0,0,0
2362.1333450000002,0.31728196554854804,-0.6919688351726595,0.34680726659845668,1.8480633141035832,0,0,0,0
2362.1493062999998,0.31124063985367262,-0.76258069455873778,0.36245664907411423,1.9117831944782184,0,0,0,0
2362.1656788999999,0.30460559047880587,-0.8345695962688261,0.37863732692688556,1.9755801833747531,0,0,0,0
2362.1816683000002,0.29736484562551629,-0.90806291708135856,0.39534997005264982,2.0394612814359876,0,0,0,0
2362.1982053000002,0.28950536564061002,-0.98318967459864259,0.41259530678563888,2.1034335116313669,0,0,0,0
2362.2144321000001,0.28200430262758186,-0.80614333380317416,0.42985736736064994,2.0351933989766615,0,0,0,0
2362.2304155000002,0.2759754499532448,-0.62988227773256134,0.44655070600816144,1.9669403465855988,0,0,0,0
2362.2462036000002,0.27041736164959662,-0.70921538005893381,0.46319231200753469,2.0310640377640254,0,0,0,0
2362.2626758000001,0.26419332528354994,-0.78981207019482547,0.48036855569094361,2.0952591341779323,0,0,0,0
2362.2788873,0.25729226169687563,-0.87181315881035859,0.49808006219330375,2.1595333326966859,0,0,0,0
2362.2946406000001,0.24970191387176727,-0.95536059438504983,0.51632752061553355,2.2238942808569382,0,0,0,0
2362.3113426999998,0.24241295696097467,-0.78339253107746221,0.5345938965036765,2.1557780710308223,0,0,0,0
2362.3276114,0.23655371195971392,-0.61225385877473881,0.55229262730709727,2.0876598141639273,0,0,0,0
2362.3445560999999,0.23111022934560463,-0.69984765197179977,0.56994176518567707,2.152176366816875,0,0,0,0
2362.3610620999998,0.22493211101673405,-0.78866835845111005,0.58812880569447412,2.2167621428342792,0,0,0,0
2362.3772217000001,0.21800853781717944,-0.87886838607626849,0.60685435781485186,2.2814253443031887,0,0,0,0
2362.3925214999999,0.21032741794834989,-0.97060079433219371,0.62611909837640178,2.3461740376915095,0,0,0,0
2362.4093038000001,0.20289045062403202,-0.80402705757010917,0.645405097342719,2.2782198484821365,0,0,0,0
2362.4258969000002,0.19683789710409108,-0.63836981279010252,0.66412484275781836,2.2102738352154172,0,0,0,0
2362.4425021000002,0.19114463481262606,-0.73419847434978314,0.68279731664405219,2.2751879917664306,0,0,0,0
2362.4592877999999,0.18464798282987788,-0.83128915888443211,0.70201101055045512,2.3401724547250535,0,0,0,0
2362.4753879999998,0.17733679011508863,-0.92980424286188879,0.72176654351738101,2.4052356714923886,0,0,0,0
2362.4921402999998,0.1702213526459215,-0.76795390422628074,0.74154530366212901,2.3374317273216598,0,0,0,0
2362.509,0.16445092303453321,-0.60703021880754338,0.76075909371223893,2.2696436622460081,0,0,0,0
2362.5260039,0.15899319649825755,-0.70940723222314073,0.77992753324650466,2.3348685494745296,0,0,0,0
2362.5431056000002,0.15267777182513326,-0.81298081093916463,0.79963976391052449,2.4001590959625871,0,0,0,0
2362.5603821,0.14549401319150956,-0.91792099732968002,0.81989636682687117,2.4655239423864819,0,0,0,0
2362.5767070000002,0.13845891593858306,-0.76086174788694161,0.84017818459347726,2.3978891846082675,0,0,0,0
2362.5933057000002,0.13272874641229387,-0.60476788451040353,0.85989647137937697,2.3302775190957203,0,0,0,0
2362.6098569000001,0.12726512468902443,-0.7134765996816711,0.87957137367257943,2.3958042017344892,0,0,0,0
2362.6265757000001,0.12089111579261581,-0.82336378048988423,0.89979257233931931,2.4613940600580873,0,0,0,0
2362.6436598999999,0.11359621024707345,-0.93460564852517891,0.92056062778348424,2.5270557122005486,0,0,0,0
2362.6607211999999,0.10640251401326374,-0.78256718067909348,0.94135595015291296,2.4596118488000611,0,0,0,0
2362.6776593,0.10047161413158888,-0.63156828264093123,0.96158936370160075,2.3921988968120775,0,0,0,0
2362.6946308000001,0.095795587826453504,-0.48141865365802544,0.98126110978409709,2.3248125100524475,0,0,0,0
2362.7101579,0.091331920436880015,-0.59724450125574191,1.000891773569007,2.3906704426259733,0,0,0,0
2362.7269021000002,0.085899419367281599,-0.71402933115869105,1.0210714420173079,2.4565782517783386,0,0,0,0
2362.7430081000002,0.079489373119299517,-0.83195725246392538,1.0418005656740721,2.5225447985023708,0,0,0,0
2362.7593711999998,0.072091540902887608,-0.95121104604007589,1.0630796671400216,2.5885784681774462,0,0,0,0
2362.7750795000002,0.064732913364924677,-0.80598636532806156,1.0843887363735414,2.5214071364708959,0,0,0,0
2362.7915533999999,0.058579945121565245,-0.66189195787325439,1.1051382076263967,2.4542766498561819,0,0,0,0
2362.807683,0.053623963530892327,-0.51873608203663291,1.125328399853587,2.3871813521742005,0,0,0,0
2362.8240344999999,0.048817849330062703,-0.64262385155197377,1.1454802827785915,2.4534177006669364,0,0,0,0
2362.8398127,0.042975578987614144,-0.76750724262619352,1.166184319819429,2.5197028066805855,0,0,0,0
2362.8565431000002,0.036088117729824405,-0.89357482275951106,1.1874409499803193,2.5860449355122426,0,0,0,0
2362.8723948000002,0.029185920233046492,-0.75445694724878987,1.2087298940272333,2.5191273216645214,0,0,0,0
2362.8883512000002,0.023438591138541881,-0.61644364193895618,1.2294613724322503,2.4522549295099716,0,0,0,0
2362.9051488,0.018837677969098226,-0.47934178409288386,1.2496357356139134,2.3854208515888793,0,0,0,0
2362.9210425000001,0.014334781240744105,-0.60963211364340997,1.2697740967565363,2.451950206785642,0,0,0,0
2362.9374871999999,0.0087426984883929408,-0.74083556356131242,1.2904670278619068,2.5185216266915234,0,0,0,0
2362.9535977999999,0.0020530687760590112,-0.87314412355051074,1.3117149105600321,2.5851429538550494,0,0,0,0
2362.9692175,-0.0047023022182811781,-0.74002748194681189,1.3329973521342922,2.5184858980963125,0,0,0,0
2362.9855232999998,-0.010352889147689916,-0.60803448640802815,1.3537245195080072,2.4518790617287793,0,0,0,0
2363.0028011999998,-0.014907306837368413,-0.47697298515444303,1.3738968015027484,2.3853147272385646,0,0,0,0
2363.0192523999999,-0.018372559975949842,-0.34664865574702364,1.3935145201484382,2.31878456908525,0,0,0,0
2363.0355402,-0.021795551682533294,-0.48352291794262914,1.4130987426997541,2.3856096599532175,0,0,0,0
2363.0517166,-0.026361738968953555,-0.62109172338431962,1.4332399510553633,2.4524643186521442,0,0,0,0
2363.0678631999999,-0.032077676751314448,-0.75955101862880858,1.4539384216671387,2.519356129238576,0,0,0,0
2363.0846458000001,-0.037910517970840628,-0.63257577825794731,1.4746737209400436,2.4529755286305481,0,0,0,0
2363.1011428000002,-0.042689247519862708,-0.50659468595619261,1.4948560409074763,2.386642685773336,0,0,0,0
2363.1170674999998,-0.046421402726543264,-0.38141616202390077,1.5144857460750927,2.3203489439789662,0,0,0,0
2363.1327193000002,-0.050153267070841674,-0.5231970380151596,1.5340838431551556,2.3873884450360587,0,0,0,0
2363.1500553999999,-0.055069345290329211,-0.66570564160075241,1.5542407087434789,2.454456326851425,0,0,0,0
2363.1659083999998,-0.061176466897663435,-0.8091373207801732,1.57495660592331,2.5215592618119675,0,0,0,0
2363.1819730000002,-0.067443836398028714,-0.68763687688097419,1.5957112335700954,2.4554280989657635,0,0,0,0
2363.1981357999998,-0.07270315664932285,-0.56724374546155876,1.6159149910323147,2.389352469138359,0,0,0,0
2363.2149147999999,-0.076962924909762628,-0.44777071664032475,1.6355683070814917,2.3233235856146131,0,0,0,0
2363.2316891999999,-0.080230073472203275,-0.32902939038612811,1.6546715355953532,2.2573322521025867,0,0,0,0
2363.2481072,-0.083547606950608713,-0.47648341592354931,1.6737454419914288,2.3246134513662602,0,0,0,0
2363.2637479999999,-0.088096264507968189,-0.62457146080689885,1.6933801058037232,2.3919164189250881,0,0,0,0
2363.2806943999999,-0.092845377164096549,-0.50809013371012546,1.7130553256821703,2.3260262518508057,0,0,0,0
2363.2976291999998,-0.096627216617218112,-0.39244747485278841,1.7321816382536113,2.2601798568267428,0,0,0,0
2363.3137029999998,-0.099448045322541742,-0.27745739033928107,1.7507593715789638,2.1943677877253585,0,0,0,0
2363.3305916999998,-0.10234806347412419,-0.42803358566366828,1.769309084240114,2.2617788495935112,0,0,0,0
2363.3476528000001,-0.10650491081289543,-0.57916363699079576,1.7884206197388777,2.3292073014165111,0,0,0,0
2363.3644481000001,-0.11192396686022249,-0.73104259953873718,1.8080941443797949,2.396658488467359,0,0,0,0
2363.3811466000002,-0.11757856751685404,-0.61926245673656222,1.8278097196487439,2.330984903949076,0,0,0,0
2363.3974216000001,-0.1223058438559816,-0.50851972332207396,1.8469782372711006,2.2653666033762669,0,0,0,0
2363.4137890000002,-0.12611373715082266,-0.39863412142759835,1.8656001221397875,2.1997943680255561,0,0,0,0
2363.4296402999998,-0.12900868430285847,-0.28942487796196154,1.8836757212624293,2.1342587193836553,0,0,0,0
2363.4464358,-0.13099561435131313,-0.18071088071712371,1.9012053018558666,2.0687499841614865,0,0,0,0
2363.4633638999999,-0.13310893341413646,-0.33625989482591762,1.9187089877682491,2.1363617492807441,0,0,0,0
2363.4798021000001,-0.13651997379589981,-0.49222224952250454,1.936776143681066,2.203984249852168,0,0,0,0
2363.4960950999998,-0.14123293957062266,-0.64879190255118202,1.9554068769979986,2.271621963477088,0,0,0,0
2363.5116197000002,-0.14622462097565253,-0.5427528200703251,1.9740815691461018,2.2062261027243877,0,0,0,0
2363.5273848000002,-0.15033639000914936,-0.43764183493811581,1.992211500469464,2.1408810037095041,0,0,0,0
2363.5439237999999,-0.15357529571957609,-0.33328352659097132,2.0097970576128379,2.0755773205165409,0,0,0,0
2363.5600665000002,-0.15594692464434382,-0.22950231781819821,2.0268385486260727,2.0103055338495528,0,0,0,0
2363.5756634999998,-0.1574553998102306,-0.12612254783081869,2.0433362017088341,1.9450559984803808,0,0,0,0
2363.5925252000002,-0.15912965364754045,-0.28571234914396176,2.0598097134730331,2.0128230973740058,0,0,0,0
2363.6093968999999,-0.16213499840825116,-0.44563734038430391,2.0768479754744198,2.0805971184802909,0,0,0,0
2363.6264523,-0.16647497777617812,-0.60608916570064797,2.094451059535011,2.1483815728634004,0,0,0,0
2363.6422124999999,-0.17113053825834748,-0.50509282230405839,2.112099704350253,2.0832300719273036,0,0,0,0
2363.6580229000001,-0.17494800669044727,-0.40497366325726847,2.1292056168533611,2.0181273389570005,0,0,0,0
2363.6749758999999,-0.17793402864505006,-0.30556163613051301,2.1457691673251875,1.9530641023899191,0,0,0,0
2363.6914517,-0.18009383280226318,-0.20668674760333264,2.1617906482782914,1.8880309680012355,0,0,0,0
2363.7075955,-0.18143123152128676,-0.108179079351422,2.1772702735754788,1.8230184540316277,0,0,0,0
2363.7238443000001,-0.18296988076934054,-0.27132846333570787,2.1927273141044128,1.890915366371507,0,0,0,0
2363.7408464999999,-0.18586916882104768,-0.43478294331585332,2.2087501784089989,1.9588169002578082,0,0,0,0
2363.7569451999998,-0.18911233453148421,-0.33761668535383688,2.224819891506927,1.8938608259313574,0,0,0,0
2363.7736515000001,-0.19154822378721315,-0.24104611725337419,2.2403484413903847,1.8289382804543974,0,0,0,0
2363.7896685999999,-0.19318114891421564,-0.14490441477021451,2.255336071044852,1.7640399275603404,0,0,0,0
2363.8062417000001,-0.19401403256200367,-0.049024882941298926,2.2697829454142981,1.6991563742197413,0,0,0,0
2363.8218265,-0.19506679562508669,-0.21397037901655,2.2842080534969726,1.7671174069330127,0,0,0,0
2363.8384632000002,-0.19749488428861353,-0.37914883292595447,2.2991995129489227,1.8350812496081998,0,0,0,0
2363.8554306000001,-0.20028365089799022,-0.28432639310877855,2.3142385538081074,1.7702415956038751,0,0,0,0
2363.8714203,-0.20228432079561953,-0.190009988596681,2.3287373824085198,1.7054305637875145,0,0,0,0
2363.8885326999998,-0.20350046974252617,-0.096035502633063735,2.3426962011414365,1.6406388972183872,0,0,0,0
2363.9053594000002,-0.20393430646692709,-0.002238964418529903,2.3561151350970091,1.5758573016010711,0,0,0,0
2363.9221435999998,-0.20460266692472517,-0.16857770957488719,2.3695129399250061,1.6438665588073973,0,0,0,0
2363.9378789000002,-0.20665774891222571,-0.33509427155965893,2.3834774938354988,1.7118774883725429,0,0,0,0
2363.9545708999999,-0.20908669390490484,-0.24212763629448447,2.397490199254031,1.6471299395452708,0,0,0,0
2363.9711793000001,-0.21074272493142579,-0.14959516818754584,2.4109634443263488,1.5824070246610735,0,0,0,0
2363.9875124999999,-0.21162882765830437,-0.057335006038874259,2.4238973985182248,1.5176995686351165,0,0,0,0
2364.0032099,-0.21174663951712402,0.034814567882269915,2.436292154727532,1.4529983714690393,0,0,0,0
2364.0191021000001,-0.21211047916427977,-0.13260697379043945,2.4486662780073245,1.5210441087988102,0,0,0,0
2364.0358292999999,-0.21386989861330222,-0.30016387773388103,2.4616074518324438,1.5890908073165559,0,0,0,0
2364.0515332,-0.2160135226548881,-0.208662903965323,2.4745972209788469,1.5244159159295441,0,0,0,0
2364.0685059000002,-0.21739622063157821,-0.11753858291452936,2.4870481226275789,1.4597624376951992,0,0,0,0
2364.0855268,-0.21802050614047797,-0.026630900112248657,2.4989602996933531,1.3951212731494542,0,0,0,0
2364.1017056999999,-0.21788755989653483,0.064220026878561529,2.5103338191866498,1.330483306028277,0,0,0,0
2364.1184966999999,-0.21800966575223932,-0.1040435706559748,2.5216870920779506,1.3985567643210304,0,0,0,0
2364.1352195999998,-0.21953424062661905,-0.2724096084148066,2.5336076449904006,1.4666307410186523,0,0,0,0
2364.1519652000002,-0.22145111898859454,-0.18206256436611501,2.5455771385858328,1.4020129853033803,0,0,0,0
2364.1675226000002,-0.22261650651690229,-0.092046140540939042,2.5570082306401192,1.3374140492579585,0,0,0,0
2364.1837187000001,-0.22303253904019607,-0.002201814527806426,2.5679010427085678,1.272824899298955,0,0,0,0
2364.1998933,-0.2227000318865158,0.087628818915023415,2.5782556210136143,1.2082364904316352,0,0,0,0
2364.2156338,-0.22262963728684199,-0.081288938448270953,2.5885902530472515,1.2763310681417692,0,0,0,0
2364.232422,-0.2239670631270502,-0.25028341292462081,2.5994923401846601,1.3444258896514147,0,0,0,0
2364.2481935000001,-0.22570311591267445,-0.16084092782096657,2.6104436362547583,1.2798528758631114,0,0,0,0
2364.2650748999999,-0.22669507081192633,-0.071692143702269867,2.6208568954375164,1.2152965930624677,0,0,0,0
2364.2809038,-0.22694476065590571,0.017320270352616258,2.6307322220955314,1.150748062959287,0,0,0,0
2364.2975732999998,-0.22645270764814759,0.10635354351935868,2.6400696457345201,1.0861982995015147,0,0,0,0
2364.3143844000001,-0.22622826576081703,-0.063070658681025987,2.6493873557318013,1.1543089633225565,0,0,0,0
2364.3302359999998,-0.22741578596245787,-0.23255130570163335,2.6592726543492087,1.2224197012881866,0,0,0,0
2364.3471080999998,-0.22900684376505157,-0.14381324896214079,2.669207369368173,1.157881504232291,0,0,0,0
2364.3633346000001,-0.22985955706777214,-0.055339147112944534,2.6786043310162908,1.0933583503960116,0,0,0,0
2364.3793922,-0.22997551449756062,0.033027390879167347,2.6874636297655461,1.0288413066053501,0,0,0,0
2364.3961245,-0.22935500183217919,0.12144266891982713,2.6957852816175909,0.964321434449394,0,0,0,0
2364.4122821999999,-0.22799700233388351,0.21006300439090686,2.7035692280978223,0.8997897999064578,0,0,0,0
2364.4282285999998,-0.22690899100208417,0.040485533387158511,2.7113335475802334,0.96790388092745683,0,0,0,0
2364.4440236999999,-0.22723378176768172,-0.12903642836878451,2.7196654823675801,1.0360175709894903,0,0,0,0
2364.4609982000002,-0.22796188585517796,-0.040181550551041438,2.7280468408812877,0.9714761365378034,0,0,0,0
2364.4777517000002,-0.22794995651968955,0.048592596307376806,2.7358903781808301,0.90693927645757144,0,0,0,0
2364.4933901999998,-0.22719805365546267,0.13744290188023209,2.74319609734893,0.84239802149030607,0,0,0,0
2364.5099635000001,-0.22570492969462763,0.22652628552565984,2.7499639267422098,0.77784340872530089,0,0,0,0
2364.5260196999998,-0.22447847041795299,0.057273126739040524,2.7567119847506985,0.84594682109047481,0,0,0,0
2364.5431085999999,-0.22466203826660719,-0.11190607540523907,2.7640275685888849,0.91404971851766792,0,0,0,0
2364.5600089,-0.22524526797535122,-0.022502649253533819,2.7713924261977509,0.84948182506325665,0,0,0,0
2364.577002,-0.22508377155395162,0.066851286743324426,2.7782192351491291,0.78491671867262569,0,0,0,0
