Time,Theta,ThetaDot,X,XDot,Out1,Out2,Out3,Out4
123.4093941,-0.47155142525454224,-0.080014398023893138,1.2656602165638183e-05,0.0032401229292575648,0,0,0,0
123.4256127,-0.47207643517000608,-0.04374056743901477,-0.0002028286524907778,-0.058835303553321942,0,0,0,0
123.4418333,-0.47229954207521485,-0.0075518644010745808,-0.00093559000894051015,-0.12090643665361633,0,0,0,0
123.4586061,-0.4722211936095741,0.02861870238567504,-0.0021856049355387622,-0.18297666613912653,0,0,0,0
123.47352359999999,-0.47184127940091658,0.064838082560765689,-0.0039528791307526659,-0.24504937883316821,0,0,0,0
123.4898512,-0.47115913092417061,0.10117330915266583,-0.0062374465350455962,-0.3071279679376071,0,0,0,0
123.5067222,-0.47017352031794818,0.13769162364589738,-0.0090393694204351886,-0.36921584235111166,0,0,0,0
123.5231181,-0.46888265815860292,0.17446060113727271,-0.012358738557676484,-0.43131643597983038,0,0,0,0
123.5398052,-0.46728419019077844,0.21154827563993828,-0.01619567346098981,-0.49343321703567372,0,0,0,0
123.55595870000001,-0.46537519301302899,0.24902326558024934,-0.020550322710202615,-0.5555696973145875,0,0,0,0
123.57282120000001,-0.46315216871678722,0.28695489951330916,-0.025422864350096695,-0.61772944144329134,0,0,0,0
123.58932179999999,-0.4606110384768381,0.32541334205779487,-0.030813506366636802,-0.67991607607779425,0,0,0,0
123.6056854,-0.45774713509156573,0.36446972001883771,-0.036722487239593246,-0.74213329903049896,0,0,0,0
123.6221702,-0.45455519447165305,0.4041962486284314,-0.043150076570847393,-0.80438488829465238,0,0,0,0
123.6385121,-0.45102934607668149,0.44466635778515673,-0.050096575787371998,-0.86667471092515491,0,0,0,0
123.6548198,-0.44716310230027584,0.48595481811777236,-0.057562318917492278,-0.92900673172300374,0,0,0,0
123.6707356,-0.4429493468061661,0.52813786662908491,-0.065547673438541218,-0.99138502165669273,0,0,0,0
123.68809899999999,-0.43838032181986608,0.57129333159587947,-0.074053041193404653,-1.0538137659373579,0,0,0,0
123.70401649999999,-0.43344761438373713,0.61550075630573553,-0.083078859372683916,-1.1162972716449824,0,0,0,0
123.7205714,-0.42814214158711911,0.66084152110016292,-0.092625601558261911,-1.178839974780125,0,0,0,0
123.7367653,-0.42245413478812394,0.70739896306324423,-0.10269377882290993,-1.2414464465889201,0,0,0,0
123.7532052,-0.41637312284977657,0.75525849254315569,-0.11328394087918665,-1.3041213989779261,0,0,0,0
123.76920149999999,-0.40988791442062777,0.80450770551746242,-0.1243966772692132,-1.3668696887992311,0,0,0,0
123.7851323,-0.40298657929898379,0.85523649060852602,-0.13603261858491947,-1.4296963207442142,0,0,0,0
123.8017442,-0.39565642893074604,0.90753712931892183,-0.14819243770599158,-1.4926064485359256,0,0,0,0
123.8177469,-0.3878839961038113,0.96150438778428315,-0.16087685103995533,-1.5556053740541724,0,0,0,0
123.8341944,-0.38060696063756999,0.77333148220042291,-0.1735729688589551,-1.4871788208787651,0,0,0,0
123.84983320000001,-0.37489564741384712,0.58574648421651498,-0.18569870610589528,-1.4187135761618765,0,0,0,0
123.86577440000001,-0.36978840065491453,0.64380822545538063,-0.19776782355930489,-1.4818295928127674,0,0,0,0
123.882553,-0.36419278086728996,0.70304727927761568,-0.21036315593294594,-1.545010173648524,0,0,0,0
123.89899939999999,-0.35809855870282609,0.76357108078391511,-0.22348526448270514,-1.6082612814990132,0,0,0,0
123.9155775,-0.35149460227731694,0.82548893823022973,-0.23713476055647939,-1.6715889818260834,0,0,0,0
123.9316,-0.34436886116286886,0.88891213246138934,-0.25131230644086267,-1.7349994399811204,0,0,0,0
123.9493579,-0.33670834960914037,0.95395400114580775,-0.26601861617222555,-1.7984989150950228,0,0,0,0
123.9654705,-0.32947281298380293,0.77128136185876806,-0.28073910037540384,-1.73014003473919,0,0,0,0
123.98134140000001,-0.32375682004880452,0.58928157675957193,-0.29488982451410234,-1.6617563221056468,0,0,0,0
123.9975647,-0.31857698277094521,0.65838571387067835,-0.30898631490777728,-1.7253889259459907,0,0,0,0
124.01420969999999,-0.31281671276900819,0.72868056652224844,-0.32361333317684643,-1.7890883405934155,0,0,0,0
124.0305551,-0.30646559809932861,0.8002916651862354,-0.33877146326090718,-1.8528615329990978,0,0,0,0
124.04675229999999,-0.29951217476142822,0.87334608190253349,-0.35446134732487189,-1.9167155110987597,0,0,0,0
124.0630531,-0.29194391358577404,0.94797249412511553,-0.37068368605313096,-1.9806573107849081,0,0,0,0
124.0791139,-0.28473759916326519,0.77059374538872372,-0.38692255461892844,-1.9124026137066215,0,0,0,0
124.0960468,-0.27900641480112637,0.59396188603097844,-0.40259257977557406,-1.8441349761433827,0,0,0,0
124.11180299999999,-0.27375028021122683,0.67261373313693129,-0.41821066464950574,-1.9082214240191435,0,0,0,0
124.12856119999999,-0.26783412427849185,0.75246514350848437,-0.43436306304576783,-1.9723757439257095,0,0,0,0
124.14416180000001,-0.26124740423866666,0.83365619511182421,-0.45105037066484077,-2.0366056369688232,0,0,0,0
124.1600589,-0.25397840558825485,0.91632810285213673,-0.46827324725563357,-2.100918767586001,0,0,0,0
124.1764483,-0.24601423254842053,1.0006232282753371,-0.48603241621199561,-2.1653227372028603,0,0,0,0
124.1920326,-0.2383460565737191,0.82918454537322084,-0.50381078288023373,-2.0972289223978278,0,0,0,0
124.2085812,-0.23210296866921337,0.65862972310621648,-0.52102169407033438,-2.029133840319723,0,0,0,0
124.2250322,-0.22727826173823815,0.48878903555496905,-0.53766514894746009,-1.9610397171129184,0,0,0,0
124.24147619999999,-0.22285645613930549,0.578186155964453,-0.55425941774354026,-2.0256304818525477,0,0,0,0
124.2585976,-0.21768584238383584,0.66859187098551842,-0.57139215998743753,-2.0902783359061141,0,0,0,0
124.27444819999999,-0.21175740685457711,0.76016208879965108,-0.5890638847876738,-2.1549918020566809,0,0,0,0
124.2905767,-0.20506083471194592,0.85305322326283595,-0.60727517182781554,-2.2197792823381319,0,0,0,0
124.30731280000001,-0.1975845057982413,0.94742215648271155,-0.62602667021710057,-2.2846490199016429,0,0,0,0
124.3239288,-0.1903336938021013,0.78263998180969763,-0.64480017003963952,-2.2167490268632135,0,0,0,0
124.3401212,-0.1844523793180563,0.61877035010533654,-0.66300788026911261,-2.148860221651907,0,0,0,0
124.35641680000001,-0.17891261720894819,0.71710815234306358,-0.68116903809190044,-2.2138927344498702,0,0,0,0
124.3729695,-0.1725487062121677,0.81667006749886339,-0.69987239267968604,-2.2789931283899394,0,0,0,0
124.3891816,-0.1653497988606627,0.91762160169919826,-0.71911854330252067,-2.3441699589971745,0,0,0,0
124.40559159999999,-0.15832895979876502,0.75754485119812831,-0.73838865657231334,-2.2764264519653774,0,0,0,0
124.4218517,-0.1526383260508313,0.59840019021822244,-0.75709431398161009,-2.2087014227675317,0,0,0,0
124.43816630000001,-0.14724326823011649,0.7031410593745151,-0.77575534132776158,-2.2740386226667511,0,0,0,0
124.4548161,-0.14097089132639698,0.80905902700234633,-0.79496108967639045,-2.3394399373494648,0,0,0,0
124.4708712,-0.13381071173263442,0.91632666671645679,-0.81471212742968613,-2.4049140406098397,0,0,0,0
124.4873108,-0.12678184170760706,0.76107764508052123,-0.83448912265186759,-2.3373463441364595,0,0,0,0
124.50405840000001,-0.12104274614114793,0.60681120091116358,-0.85370315632023375,-2.269804360160415,0,0,0,0
124.5210565,-0.11658597253632674,0.45333819653107094,-0.87235442915650196,-2.202284427371084,0,0,0,0
124.5372167,-0.11237219069597713,0.56509199250771458,-0.89096326676344162,-2.2679479461655059,0,0,0,0
124.55422419999999,-0.10722365243751317,0.67776749227025834,-0.91011948567993384,-2.3336605410219953,0,0,0,0
124.5710358,-0.10113196846913966,0.79154590976490635,-0.92982353050591149,-2.3994312724187545,0,0,0,0
124.58733890000001,-0.094087242866109158,0.90660751997891365,-0.95007591988075935,-2.4652688103401252,0,0,0,0
124.603936,-0.087114611147249513,0.75770503499040409,-0.97035682348169472,-2.397946443228733,0,0,0,0
124.62002320000001,-0.08137866387525769,0.60983630870325789,-0.99007684380246597,-2.3306581791266732,0,0,0,0
124.63577429999999,-0.076871534101037184,0.4628092249787179,-1.009236245502215,-2.2633988453768712,0,0,0,0
124.651898,-0.07254877706588965,0.58225502418470043,-1.0283557944963726,-2.3294266705290188,0,0,0,0
124.6676396,-0.067227173166797355,0.70262114401415832,-1.0480257519508958,-2.3955012934902733,0,0,0,0
124.68439650000001,-0.06089832175556667,0.82409455193602588,-1.0682465424130891,-2.4616314807105923,0,0,0,0
124.700614,-0.054591884208975899,0.68066290795607498,-1.0884979927888476,-2.3945293376641268,0,0,0,0
124.71662739999999,-0.049476790259956674,0.53820058671596227,-1.108190406681494,-2.3274640031702138,0,0,0,0
124.73310119999999,-0.045545721234091327,0.39651273626729283,-1.1273240657444248,-2.2604289176448131,0,0,0,0
124.7496101,-0.041752467900467459,0.52181662111813865,-1.1464199325430486,-2.3267285793448207,0,0,0,0
124.76631,-0.036912018177315271,0.64792187314644456,-1.1660684427985251,-2.3930672582788497,0,0,0,0
124.7826105,-0.031016944978640944,0.77501994821976039,-1.1862699557063614,-2.4594535838913614,0,0,0,0
124.799564,-0.025099470774233336,0.63670092549007884,-1.206504101711543,-2.3925682244803887,0,0,0,0
124.8155198,-0.020330852199419172,0.49932105140228883,-1.226181027981025,-2.3257221103038361,0,0,0,0
124.8320726,-0.016704024945910261,0.36268483563131826,-1.245301032696893,-2.2589077376668611,0,0,0,0
124.8483794,-0.013171957499885673,0.49327948656822118,-1.264385175023035,-2.3254502617145958,0,0,0,0
124.86467620000001,-0.0085488612620350356,0.62461014900038125,-1.2840239653578662,-2.392026803842128,0,0,0,0
124.8809191,-0.0028278427091924475,0.75687106158023587,-1.3042177199035758,-2.4586456440027757,0,0,0,0
124.8965915,0.0029578450526826072,0.62353380247255008,-1.3244459843290906,-2.3919788456472255,0,0,0,0
124.913179,0.0076362250824598878,0.49114432339004449,-1.3441188636055923,-2.3253545629103467,0,0,0,0
124.92966610000001,0.011214437087836707,0.35950809706569808,-1.3632366806269565,-2.2587646561894164,0,0,0,0
124.9462841,0.014739657571311482,0.49512348768879311,-1.3823205171444419,-2.3255336608648043,0,0,0,0
124.962643,0.019397671536138729,0.63145600241007405,-1.4019608779127803,-2.3923337471706776,0,0,0,0
124.9790424,0.025195220472650413,0.7687011857168129,-1.4221580524649287,-2.4591726192582701,0,0,0,0
124.9947827,0.031099376782902664,0.64046333777302855,-1.4423915982766526,-2.3927345530484798,0,0,0,0
125.0111454,0.035938923095837433,0.51322554785937979,-1.4620716845856145,-2.3263439304915905,0,0,0,0
125.0270489,0.039721444047731251,0.38679571907070476,-1.4811986737585712,-2.259992213189344,0,0,0,0
125.04311680000001,0.043493634526341932,0.5274258140166258,-1.5002936024774698,-2.3269818190599287,0,0,0,0
125.0596638,0.048440495636149696,0.66879555389671119,-1.5199468880791118,-2.3940009019300703,0,0,0,0
125.0758699,0.053528781769197745,0.54480392223820273,-1.5396381052356303,-2.3277589788993902,0,0,0,0
125.0924035,0.057587335557194599,0.42168253825918378,-1.5587774807457588,-2.26156012062338,0,0,0,0
125.1092139,0.060622662923347566,0.29924017973440947,-1.5773653382029558,-2.1953952279852782,0,0,0,0
125.124948,0.063679070208108285,0.44339092492628196,-1.5959225609751513,-2.2625378154784563,0,0,0,0
125.14188710000001,0.067938958894877582,0.58814636854486047,-1.6150393886867294,-2.3297029723538305,0,0,0,0
125.15826,0.073408138093610839,0.73370314151000804,-1.6347160356439274,-2.3968972944598415,0,0,0,0
125.1742526,0.079055845020454374,0.61447640395483094,-1.654432239016504,-2.3308743036626303,0,0,0,0
125.1910936,0.083714033043811475,0.49625021910531597,-1.6735984567470461,-2.2649024580147232,0,0,0,0
125.207634,0.087390311169098289,0.37883779430177883,-1.6922150797438593,-2.1989726533014617,0,0,0,0
125.22406580000001,0.090090728069578865,0.26205143274038195,-1.71028242168462,-2.1330754527643658,0,0,0,0
125.2401627,0.092856375095763027,0.41109188255690032,-1.7283211205447169,-2.2004239956150804,0,0,0,0
125.2569209,0.096865993086911586,0.56067088602835458,-1.746921122452834,-2.2677903048914128,0,0,0,0
125.2727787,0.10212483750922051,0.71098442280993601,-1.7660825984216684,-2.3351801361251772,0,0,0,0
125.28901639999999,0.10760479167866668,0.59727807331876548,-1.7852855054087056,-2.2694168040075771,0,0,0,0
125.3054401,0.11214120214018707,0.48456584129600333,-1.8039405960878496,-2.2037059927493829,0,0,0,0
125.32215359999999,0.11574164114586379,0.37266531979955875,-1.8220482721518396,-2.138038437352618,0,0,0,0
125.33871929999999,0.11841215851166062,0.2613935278120153,-1.8396088569924021,-2.0724046060955947,0,0,0,0
125.3550165,0.1211901874726496,0.41500456753963244,-1.8571426892270233,-2.1399379784092494,0,0,0,0
125.3710277,0.12525021321701918,0.56913781456077484,-1.8752393534257363,-2.2074860301926615,0,0,0,0
125.3872452,0.12956561525171831,0.45987411375911613,-1.893379001508068,-2.1419407249284439,0,0,0,0
125.4037024,0.1329736580420986,0.35139052315886343,-1.9109726102913471,-2.0764376679706702,0,0,0,0
125.4198626,0.1354801402232127,0.24350720538187412,-1.9280204946267117,-2.0109672979555278,0,0,0,0
125.43595310000001,0.13708936076601591,0.13604408164519838,-1.9445228890190693,-1.9455198922854684,0,0,0,0
125.4518534,0.13883410916320654,0.29251782430528267,-1.9609998030143729,-2.0131685838367583,0,0,0,0
125.46780269999999,0.14188405642539401,0.44934639174661972,-1.9780404873734985,-2.0808261048776635,0,0,0,0
125.48426019999999,0.14624291902501596,0.60672379441640822,-1.9956450331973616,-2.1484968365015922,0,0,0,0
125.5005462,0.15088788240036832,0.50165830618117369,-2.0132938771954536,-2.0831501838667901,0,0,0,0
125.5173355,0.15466078514423939,0.39745405781603227,-2.0303983570357342,-2.0178508495477128,0,0,0,0
125.53424649999999,0.15756812141189122,0.29393621697016659,-2.0469588304178536,-1.9525894281616838,0,0,0,0
125.5511324,0.15961492798002042,0.19092985035399393,-2.0629755760453503,-1.8873563643968434,0,0,0,0
125.5677247,0.16080478364185496,0.088259979613094994,-2.0784487925512014,-1.8221419968496186,0,0,0,0
125.5838105,0.16216544327505159,0.24833484365971081,-2.0938980953865491,-1.8899279469741439,0,0,0,0
125.6000071,0.16486105284577607,0.40869800161975017,-2.1099123010582774,-1.9577196587332861,0,0,0,0
125.616311,0.16889476549274474,0.56954120816499931,-2.1264914715722041,-2.0255206167825079,0,0,0,0
125.6340957,0.17324762324602461,0.46901115296766954,-2.143116374670941,-1.9603940323412585,0,0,0,0
125.6499906,0.17676603689020801,0.36929743652244312,-2.1591987402972532,-1.8953129306075518,0,0,0,0
125.666342,0.17945614563265089,0.27023018417794981,-2.1747389111753908,-1.8302679967729525,0,0,0,0
125.6826968,0.18132267332884602,0.17163959360377448,-2.1897371519573281,-1.7652498074027705,0,0,0,0
125.6992745,0.18236892912499897,0.073355941132718733,-2.2041936484501088,-1.7002488635717723,0,0,0,0
125.7150974,0.18361787902148718,0.23662439870589633,-2.2186276291958618,-1.7681508104358001,0,0,0,0
125.7306444,0.1862283002197157,0.40015709044682002,-2.2336274730459191,-1.8360567138593331,0,0,0,0
125.7475266,0.18918315248641832,0.3030404898110387,-2.2486742033282847,-1.7711048461193262,0,0,0,0
125.7640864,0.19133090834295388,0.20645970278379239,-2.2631797923806287,-1.7061831545747208,0,0,0,0
125.7799785,0.19267538042476559,0.11024771802817425,-2.277144455114783,-1.641282269971587,0,0,0,0
125.7970256,0.19321899007535467,0.014237638413089948,-2.290568328159055,-1.5763927745806632,0,0,0,0
125.8130678,0.19398136791245885,0.17905025674805286,-2.3039703908737064,-1.64434978550809,0,0,0,0
125.8295814,0.19611780904921772,0.3440562354736319,-2.3179387696502678,-1.7123091670489954,0,0,0,0
125.8461346,0.19861297905097788,0.24892634038402425,-2.3319546604075798,-1.6474562454496078,0,0,0,0
125.8621895,0.20031724830513062,0.15424044292139982,-2.3454302146530588,-1.5826284325201283,0,0,0,0
125.8778318,0.2012336731509427,0.059833796460795639,-2.358365605309424,-1.5178164239788758,0,0,0,0
125.89374840000001,0.20136393753631465,-0.034458227744239789,-2.3707609276280883,-1.4530108844270828,0,0,0,0
125.90961900000001,0.20172501221709851,0.13149537997115174,-2.3831349631195939,-1.5210074773154323,0,0,0,0
125.9261911,0.20346943826809064,0.29758579806117791,-2.3960756408199573,-1.589005434201163,0,0,0,0
125.9423683,0.20558318611720403,0.20393493036174209,-2.4090642914588303,-1.5242262367408221,0,0,0,0
125.9588885,0.20691805547468906,0.11065080891462004,-2.4215132030548752,-1.4594678312728786,0,0,0,0
125.9754023,0.20747646574216524,0.017570432894631831,-2.4334225127835332,-1.3947209734259478,0,0,0,0
125.9922323,0.20725947843668815,-0.075469093610749452,-2.444792280695141,-1.3299763992164355,0,0,0,0
126.0088872,0.20728200776210259,0.091298597314199953,-2.4561411368616519,-1.3980005617444822,0,0,0,0
126.0254396,0.20869449151465491,0.25815662420903202,-2.4680568626280839,-1.4660254407785345,0,0,0,0
126.0417096,0.21048380779472997,0.16555495831928169,-2.4800208872867371,-1.4012986446266347,0,0,0,0
126.0588846,0.21150272830596137,0.073253542208208067,-2.4914455949166272,-1.3365888941348301,0,0,0,0
126.0748064,0.21175312322819989,-0.018909369567533755,-2.5023310916516088,-1.2718869920477534,0,0,0,0
126.0907026,0.21123551524094683,-0.11109543883993514,-2.51267740692556,-1.2071837294816687,0,0,0,0
126.1073945,0.21096329653339543,0.056212649629404858,-2.5230030609732839,-1.2752257844555144,0,0,0,0
126.12347629999999,0.21208538087706,0.22357137052540621,-2.5338957321539946,-1.343268123334038,0,0,0,0
126.1401571,0.21358916569708311,0.13164497961436825,-2.5448369139264724,-1.2785752298301103,0,0,0,0
126.1565701,0.21432795043483102,0.039959690446841639,-2.5552390480843066,-1.2138960311963212,0,0,0,0
126.1728454,0.2143031154934672,-0.051645446778222977,-2.5651022129535601,-1.1492213608924822,0,0,0,0
126.18883820000001,0.21351470031105407,-0.14333132348912234,-2.5744264104402901,-1.084542046696674,0,0,0,0
126.20581679999999,0.212975051424214,0.024278250251249502,-2.5837300885066194,-1.1525937938474997,0,0,0,0
126.2222045,0.21383207903179902,0.19190283008402922,-2.5936008633094807,-1.2206455095569697,0,0,0,0
126.2386451,0.2150733163453257,0.10031407467705411,-2.6035202595141418,-1.1559698664456453,0,0,0,0
126.2548618,0.21555215248006129,0.0089115170619674701,-2.6129007396560859,-1.0913047964409004,0,0,0,0
126.27152169999999,0.21526951172678774,-0.0824654334523411,-2.62174235609268,-1.026641145697579,0,0,0,0
126.287206,0.21422498030019618,-0.17397733608425114,-2.6300450848866386,-0.96196975960972464,0,0,0,0
126.3032109,0.21343029097532787,-0.0062859440817204758,-2.6383273363294091,-1.0300237919857933,0,0,0,0
126.3199845,0.21403282766124013,0.16138656944874752,-2.6471767025155137,-1.0980775232232827,0,0,0,0
126.3357331,0.2150198712924494,0.069816103325658116,-2.6560747069638357,-1.0334034214408345,0,0,0,0
126.3521587,0.21524445688883262,-0.021621746620767272,-2.6644337962726263,-0.96873683944771627,0,0,0,0
126.3684464,0.21470706198742293,-0.11308763744720322,-2.6722539973280859,-0.90406861734683486,0,0,0,0
126.3842684,0.21340682538918568,-0.20474222203778808,-2.6795352606895237,-0.83938959915660194,0,0,0,0
126.4016647,0.21235526804824806,-0.037183375505647022,-2.6867959917964437,-0.90743871381252939,0,0,0,0
126.41822980000001,0.21269969797142868,0.13032226594202515,-2.6946237955189938,-0.97548724228384609,0,0,0,0
126.4348382,0.21342673883473928,0.03845188588869862,-2.7025001614280844,-0.91079905284643747,0,0,0,0
126.4506442,0.2133886073811076,-0.053341002939355481,-2.7098374825378384,-0.84611523908572972,0,0,0,0
126.4673296,0.21258531985946022,-0.145217552430953,-2.7166357594321378,-0.78142661600808894,0,0,0,0
126.483233,0.21101554955275997,-0.23733893697104103,-2.7228949161785145,-0.71672400769547906,0,0,0,0
126.50052100000001,0.20969099150018503,-0.07013519718438449,-2.729133385567184,-0.78476064311681026,0,0,0,0
126.51640449999999,0.2097593167209352,0.096978349648987383,-2.7359388220719443,-0.85279632832492003,0,0,0,0
126.5332208,0.21020605570518999,0.0044739029231719513,-2.7427926468973944,-0.78807764036751737,0,0,0,0
126.5489041,0.20988210628483381,-0.088012659484695263,-2.7491071595273731,-0.7233599298892277,0,0,0,0
