Time,Theta,ThetaDot,X,XDot,Out1,Out2,Out3,Out4
836.77133279999998,-0.16766845488554091,-0.029916129455351093,5.2367920569756307e-06,0.0013407562906012384,0,0,0,0
836.78850369999998,-0.1685468609870627,-0.1909883029597759,0.00028134433706055785,0.06916439865364038,0,0,0,0
836.80543150000005,-0.16974425170006954,-0.090123195666563141,0.0006033032183765198,0.0040376455329394359,0,0,0,0
836.82249660000002,-0.17010186531787261,0.010576553994400231,0.00038258189437363228,-0.061079880245525763,0,0,0,0
836.83858459999999,-0.16962040481652674,0.11128374310325428,-0.0003807805601196482,-0.12619786271706723,0,0,0,0
836.85461620000001,-0.16829913327642884,0.21217114939948231,-0.0016868257801865613,-0.19132598293117639,0,0,0,0
836.87177870000005,-0.16613587402117105,0.31341153633859653,-0.0035356759651719283,-0.2564738878987835,0,0,0,0
836.8874793,-0.16312701073755589,0.41517765094312759,-0.0059275334694342983,-0.32165115804753958,0,0,0,0
836.90368360000002,-0.16029294191018473,0.25506102046514834,-0.0083431805162762791,-0.2538691917901944,0,0,0,0
836.92083270000001,-0.15879178721455367,0.095266359041304011,-0.010194006884325464,-0.18609399170475105,0,0,0,0
836.93670699999996,-0.15759548461293732,0.19832729200863836,-0.011999598704428448,-0.25132734769656734,0,0,0,0
836.95252500000004,-0.15553918510583431,0.30171516745523391,-0.014348866278604369,-0.31657892396335408,0,0,0,0
836.96919679999996,-0.15261947914388876,0.40560533994680498,-0.017241999282135712,-0.38185839170808639,0,0,0,0
836.98606050000001,-0.14985898204211878,0.24707458610232605,-0.020159601539845327,-0.31413500990459914,0,0,0,0
837.00206660000003,-0.14841820046986615,0.088861194700467383,-0.022512873998362614,-0.24641899456512667,0,0,0,0
837.01800800000001,-0.14726715103715818,0.19399974994716296,-0.024821567755875466,-0.31175298567489579,0,0,0,0
837.03444569999999,-0.14523883043612509,0.29945562238824908,-0.02767477330299712,-0.37710454605344113,0,0,0,0
837.05092479999996,-0.14232990002512899,0.40540653943227944,-0.031072675149006305,-0.44248341179234663,0,0,0,0
837.0671668,-0.1395648913514331,0.24845614181091841,-0.034495719232673777,-0.37481994469343516,0,0,0,0
837.08321739999997,-0.13810640166773208,0.091829790311648174,-0.037354936301833092,-0.30716466186259889,0,0,0,0
837.09944819999998,-0.13692256754271842,0.19902910794983389,-0.040170233629425296,-0.37259844216756582,0,0,0,0
837.11650169999996,-0.13484426685164158,0.30655187043192278,-0.043530875093738847,-0.43804999722154603,0,0,0,0
837.1332099,-0.13186810115255881,0.41457803192349058,-0.047437047084029411,-0.50352910386924155,0,0,0,0
837.14968680000004,-0.12902029210852431,0.25926209127343813,-0.051369052053853163,-0.43592905406292659,0,0,0,0
837.16545280000003,-0.12746530750324878,0.104288990535679,-0.054737763271979684,-0.36833834132354648,0,0,0,0
837.18257700000004,-0.12616937578777634,0.21360932770017893,-0.05806324139641228,-0.43387473620481409,0,0,0,0
837.19951590000005,-0.12396121876808193,0.32327489082374594,-0.061934922785077264,-0.49942993549500131,0,0,0,0
837.21637390000001,-0.12083724806334524,0.43346777966254268,-0.066353002477300305,-0.56501373065666349,0,0,0,0
837.23271260000001,-0.11782520048220002,0.27990454816193261,-0.070797649427227355,-0.49748314544058742,0,0,0,0
837.24886370000002,-0.11609124506578852,0.1267163683140298,-0.074679588099053423,-0.42996351794129029,0,0,0,0
837.2649437,-0.11563302851665308,-0.026294664167699777,-0.077998887907528319,-0.36244918475594862,0,0,0,0
837.28100849999998,-0.11541643787734031,0.08525444067065259,-0.081275713170263233,-0.42809188757268468,0,0,0,0
837.29804979999994,-0.11426989224295617,0.19693332732377561,-0.085099581537705568,-0.49374162274823907,0,0,0,0
837.31426009999996,-0.11219158835985313,0.30892673182233715,-0.089470590440393613,-0.55940831752802966,0,0,0,0
837.33070669999995,-0.10917818430881165,0.42141916186675421,-0.094388919682905095,-0.62510179814976585,0,0,0,0
837.3472438,-0.10625928834738053,0.26971161752582973,-0.099334588178950398,-0.55764498468225088,0,0,0,0
837.36363319999998,-0.1046030485875783,0.11837175896361304,-0.10371816552120319,-0.49019965269732546,0,0,0,0
837.37922900000001,-0.10317219901617779,0.23219176758059931,-0.10805999982419903,-0.55595259001098574,0,0,0,0
837.39657880000004,-0.10079153452052969,0.34638140679753149,-0.11294984541266424,-0.62172522811365061,0,0,0,0
837.41244689999996,-0.097457246744779652,0.46112699856606804,-0.11838790475628104,-0.68752734191500975,0,0,0,0
837.42842199999996,-0.094199966171033239,0.31134680306737827,-0.12385409433917302,-0.62014994623540987,0,0,0,0
837.44532319999996,-0.092189039559677083,0.16199593814111207,-0.12875886549348359,-0.55278676668414972,0,0,0,0
837.46243159999995,-0.091421666308384247,0.012875200114767877,-0.13310231169981074,-0.48543134483696665,0,0,0,0
837.4785637,-0.090860163247154291,0.12917127281124344,-0.13740487556564954,-0.5513017984135985,0,0,0,0
837.49446490000003,-0.089328882145642649,0.24566572428555677,-0.14225639387544284,-0.61718271247055245,0,0,0,0
837.51082140000005,-0.086825431464123998,0.36254752545928493,-0.14765699243592825,-0.6830839577353699,0,0,0,0
837.52677689999996,-0.083345846376891991,0.48000523399977862,-0.15360687877190926,-0.74901525377966538,0,0,0,0
837.5437584,-0.079922154858075772,0.33255924226097078,-0.15958584426827666,-0.6817347114632063,0,0,0,0
837.56028230000004,-0.077725221173497297,0.18557948271979249,-0.16500420743703151,-0.61447061206729703,0,0,0,0
837.57721549999997,-0.076751938845406723,0.038866324721774106,-0.16986207865479885,-0.54721606936274014,0,0,0,0
837.5945203,-0.075962778576215695,0.15800244946621395,-0.17468004250071462,-0.61322187795972516,0,0,0,0
837.61102519999997,-0.074180003996398194,0.2773806587323106,-0.18004809687605811,-0.6792402141004682,0,0,0,0
837.62753799999996,-0.071400850706042227,0.39719211545013694,-0.18596638447863781,-0.74528085719381143,0,0,0,0
837.64386320000006,-0.068659637326859965,0.2516811871995045,-0.19191454240199957,-0.67807979332046642,0,0,0,0
837.66131740000003,-0.067129466409604419,0.10653127859402474,-0.19730274868648159,-0.61089210100296332,0,0,0,0
837.67722800000001,-0.065769142838464328,0.22755243627306276,-0.20265169288633997,-0.67698763700069087,0,0,0,0
837.69410289999996,-0.063399072941761267,0.34892426590328457,-0.20855149631859482,-0.74310104698680601,0,0,0,0
837.71079029999999,-0.060015583368462681,0.47083893205434119,-0.21500234565097173,-0.80924195005245447,0,0,0,0
837.72753120000004,-0.056653009225465407,0.32730281712468223,-0.22148384280324165,-0.74212627024625333,0,0,0,0
837.74371659999997,-0.054484586132030499,0.18423909123700233,-0.22740611889640908,-0.67502880534861476,0,0,0,0
837.76015080000002,-0.053507158487530244,0.041447593461848273,-0.23276929633829815,-0.60794197452116405,0,0,0,0
837.77601619999996,-0.052679264937591182,0.16499348214160869,-0.23809412289837154,-0.67415603451648531,0,0,0,0
837.79297540000005,-0.050820988485295537,0.28878727632613305,-0.24397077508783432,-0.74038250897348845,0,0,0,0
837.80912360000002,-0.047929504066077412,0.41302322716535012,-0.25039939399037875,-0.80663100032404356,0,0,0,0
837.82577130000004,-0.045040762649536305,0.27151324684370498,-0.2568594722704583,-0.73960176960993174,0,0,0,0
837.84211149999999,-0.043329572320841322,0.13040271710748155,-0.26276104170328091,-0.67258857825634444,0,0,0,0
837.85863340000003,-0.042793387251310662,-0.010508963573888435,-0.26810420497162318,-0.60558345119937029,0,0,0,0
837.87533759999997,-0.042390723278962435,0.11500442427686727,-0.27340973946013741,-0.6718895262869008,0,0,0,0
837.8916289,-0.040941596120399326,0.24068518812651152,-0.27926785016249922,-0.73820385622041018,0,0,0,0
837.90759519999995,-0.038443846176537615,0.36672903098848331,-0.28567864331098619,-0.80453600084048615,0,0,0,0
837.92461179999998,-0.035934569498799925,0.22682640029550366,-0.29212153665689455,-0.7375764302370803,0,0,0,0
837.94135370000004,-0.034589684220344509,0.087263037721168973,-0.29800649399499046,-0.67063088318789754,0,0,0,0
837.9574126,-0.033366124951593329,0.21437227337299253,-0.30385437680314725,-0.7370115707046333,0,0,0,0
837.97331369999995,-0.031082209220960864,0.34180117384478426,-0.31025548599486102,-0.80340774886004096,0,0,0,0
837.98932290000005,-0.02773450687825112,0.469745761226391,-0.31720998722320026,-0.86982873607705569,0,0,0,0
838.0051363,-0.024359280569412046,0.33178494861230856,-0.32419731904252863,-0.80295550799774507,0,0,0,0
838.02212489999999,-0.022131650314393587,0.19432068923907106,-0.33062746215927524,-0.73610340525786544,0,0,0,0
838.03938600000004,-0.021048257491438321,0.057153275703094031,-0.33650056013677526,-0.66926405926242594,0,0,0,0
838.05562420000001,-0.020065924989205369,0.18673425358325488,-0.34233750086928905,-0.73575902380308011,0,0,0,0
838.07159530000001,-0.018002820929156879,0.31658835812388902,-0.3487286103474892,-0.80226690764538489,0,0,0,0
838.08781429999999,-0.014855897506364662,0.44691301311006287,-0.35567403225762889,-0.86879689283086325,0,0,0,0
838.10462700000005,-0.011662108496270801,0.31120990505619756,-0.36265315669471132,-0.8020238108516321,0,0,0,0
838.12084890000006,-0.0095971939283915775,0.1759796905443399,-0.36907592591646687,-0.73527152592411982,0,0,0,0
838.1368966,-0.0086579911571297869,0.041022994504281374,-0.3749424795635215,-0.66853137201291235,0,0,0,0
838.15395939999996,-0.0078012885937906052,0.17284954369205155,-0.38077371801207721,-0.73512937680857082,0,0,0,0
838.17077619999998,-0.0058451978193599539,0.30492471298303048,-0.3871599783374256,-0.8017388528745405,0,0,0,0
838.18717119999997,-0.0027868712472984758,0.43744694665976958,-0.39410139149030315,-0.86836881100017271,0,0,0,0
838.2036276,0.0003364315001742173,0.30389267579870693,-0.40107732502377741,-0.80169218496373196,0,0,0,0
838.22030510000002,0.0023487463858228776,0.17080617440953502,-0.40749770872398028,-0.73503671777019186,0,0,0,0
838.23647700000004,0.0032531956343271004,0.037988667829521906,-0.41336268431815515,-0.66839350926916985,0,0,0,0
838.25229160000004,0.0040929942862853591,0.17196016797309824,-0.41919315549747799,-0.735089128502874,0,0,0,0
838.26936260000002,0.0060500373425603615,0.30617571278891498,-0.42557946016681691,-0.80179571162806229,0,0,0,0
838.28561100000002,0.0091271371573118185,0.44083447648849294,-0.43252172423637814,-0.86852205927714377,0,0,0,0
838.30149719999997,0.012287070496818256,0.30943329808370851,-0.43949931500639666,-0.80194298365442462,0,0,0,0
838.31817249999995,0.014354012205279498,0.17851380978262132,-0.44592217363552183,-0.73538625438669969,0,0,0,0
838.33466999999996,0.015331203880399514,0.047878107413158913,-0.45179045100376408,-0.66884278228442406,0,0,0,0
838.35054690000004,0.01522023523461468,-0.082672320607365068,-0.45710422147619023,-0.60230330294719325,0,0,0,0
838.36660610000001,0.015062659483651871,0.053349853109210282,-0.46238430801899094,-0.66909147835636673,0,0,0,0
838.38358010000002,0.016038721395405034,0.18943814646878548,-0.46822096790393086,-0.73588254414670318,0,0,0,0
838.39983140000004,0.018149754930729171,0.32579291324582998,-0.47461425941511531,-0.80268523286152504,0,0,0,0
838.41559289999998,0.020357229746605313,0.19595433585742567,-0.48104349574282645,-0.73617799849637378,0,0,0,0
838.43171870000003,0.021484072011741396,0.06642778084788839,-0.48691856911962134,-0.66968550756844669,0,0,0,0
838.44763829999999,0.021532108995113149,-0.062984693766506228,-0.49223956601687263,-0.60319842183322381,0,0,0,0
838.46473690000005,0.021542991374014379,0.074167765346614317,-0.49752730880042029,-0.67003723929682901,0,0,0,0
838.48058500000002,0.02269704711340579,0.21141624564387632,-0.50337205187488243,-0.73688018456686699,0,0,0,0
838.49652049999997,0.02499586007277832,0.34896126595826499,-0.50977386325035934,-0.80373583540810123,0,0,0,0
838.513642,0.027401345470469938,0.22039452397063644,-0.51621208127957008,-0.73728700572664096,0,0,0,0
838.52952630000004,0.028736951150218789,0.092179418627461276,-0.52209663124810568,-0.67085500332092041,0,0,0,0
838.54685740000002,0.029004837481666275,-0.035881238088461109,-0.52742761671978378,-0.60443041692428912,0,0,0,0
838.56304260000002,0.029246757123590459,0.10260317917067401,-0.53272585663862781,-0.67132854606232051,0,0,0,0
838.58005290000006,0.030643107167846226,0.24122393803563516,-0.53858159753366375,-0.73823241422028996,0,0,0,0
838.59604490000004,0.033195807920457149,0.38018164369491564,-0.54499492007542527,-0.80515039623738616,0,0,0,0
838.61207279999996,0.035867423369775393,0.2531500967064893,-0.55144520029262933,-0.73877226429676213,0,0,0,0
838.62745640000003,0.037482160522066946,0.12652365425616566,-0.55734241272133134,-0.67241379720275374,0,0,0,0
838.64357500000006,0.038042629361464193,0.0001061537213660653,-0.56268668431870283,-0.60606551494263172,0,0,0,0
838.65976869999997,0.037549803535880236,-0.1262989252833891,-0.56747806253092337,-0.53971782585886563,0,0,0,0
838.67683590000001,0.03704391323849697,0.013614279117868474,-0.57223728123916529,-0.60667909868089775,0,0,0,0
838.69381620000001,0.037703854313661536,0.15353445295386625,-0.57755450586181067,-0.6736406417224704,0,0,0,0
838.71041160000004,0.039530470741588122,0.29366272260351534,-0.58342977103847671,-0.74061073019433943,0,0,0,0
838.72683840000002,0.041485539780572185,0.1677457625625739,-0.5893424296905958,-0.67428501210767566,0,0,0,0
838.74274279999997,0.042392506330552929,0.042102740704768632,-0.59470243313447013,-0.60797273266844121,0,0,0,0
838.75903659999994,0.042252887923165075,-0.083462306562417585,-0.59950985586504257,-0.54166427738196887,0,0,0,0
838.77619500000003,0.042107224096549704,0.05729512438848846,-0.60428543835177873,-0.60866270615816087,0,0,0,0
838.79204789999994,0.043134670403799702,0.19812187546176299,-0.60961934634888681,-0.67566393234518785,0,0,0,0
838.80899739999995,0.045336590245178165,0.33921899145130158,-0.6155116349731814,-0.74267607227206567,0,0,0,0
838.82523849999995,0.047675600181347769,0.21441732188427545,-0.62144170367689389,-0.67640194139515641,0,0,0,0
838.84202319999997,0.048976092529787817,0.089964208471582194,-0.62681956199835764,-0.61014507021905917,0,0,0,0
838.85893269999997,0.049240210251961444,-0.034335405901166925,-0.6316453161946648,-0.54389581764480366,0,0,0,0
838.87576430000001,0.049508719618485152,0.10765882765127419,-0.63643970395286198,-0.61094827916797767,0,0,0,0
838.8918989,0.050960921937881334,0.24979305542071706,-0.6417928783236585,-0.67800627231977284,0,0,0,0
838.90873680000004,0.052558678257087564,0.12598136222760775,-0.64718422051205204,-0.61177921196972385,0,0,0,0
838.92527829999995,0.053125628075120425,0.0023803414768247518,-0.65202371832271577,-0.5455626675998092,0,0,0,0
838.94223520000003,0.052662766234466495,-0.12120478910371699,-0.65631142138279941,-0.47934690016358106,0,0,0,0
838.95909970000002,0.052209512743744725,0.021317798231138989,-0.66056799441886915,-0.54642229227568684,0,0,0,0
838.97455409999998,0.052943876471138081,0.16385786865782326,-0.6653835261602028,-0.61349834683247495,0,0,0,0
838.99150320000001,0.054866789396891102,0.30661663497285108,-0.67075805300343139,-0.68058294923065465,0,0,0,0
839.00700589999997,0.056941039928251405,0.18358001093471796,-0.67617100425377008,-0.61439172451310753,0,0,0,0
839.0238415,0.057991300980364355,0.060845877755366463,-0.68103242801895469,-0.54821569366552325,0,0,0,0
839.04074660000003,0.058019335514631426,-0.061779810508625299,-0.68534241291591902,-0.48204511199009381,0,0,0,0
839.05679229999998,0.05806495724737689,0.081696517551816547,-0.68962163022466672,-0.54916184147185954,0,0,0,0
839.07364299999995,0.059306474204945836,0.22527482918615391,-0.69446016350095741,-0.6162824747169775,0,0,0,0
839.09053319999998,0.060706007744848141,0.10301735398277462,-0.69933742772109797,-0.55012860462223323,0,0,0,0
839.10673859999997,0.061087548835640632,-0.019064544935637948,-0.70366345109353934,-0.48398360071429392,0,0,0,0
839.12219919999995,0.060451803723841215,-0.14116464729986139,-0.70743826920785502,-0.41783765325749811,0,0,0,0
839.13988329999995,0.059837369837779569,0.0026721208600804566,-0.71118248750858448,-0.48496979536833623,0,0,0,0
839.15570700000001,0.060421401614059553,0.14649998099239875,-0.71548613353601509,-0.55210156614659078,0,0,0,0
839.17211310000005,0.062204611056732688,0.29052014678969595,-0.72034923429184738,-0.61924065487597046,0,0,0,0
839.18827290000002,0.064150107494566247,0.16885773332229886,-0.7252512533769353,-0.5531141963764763,0,0,0,0
839.2048704,0.065082980910124183,0.047476129950985435,-0.72960228105762126,-0.48700198827225005,0,0,0,0
839.22152740000001,0.065004817093441428,-0.073817803593958356,-0.73340239783841543,-0.42089422436090201,0,0,0,0
839.23835210000004,0.063915591764049498,-0.19521730612902638,-0.73665160229678961,-0.35478106062418863,0,0,0,0
839.25515050000001,0.062852921705158257,-0.050829865680238673,-0.73987044231523991,-0.42193660213845496,0,0,0,0
839.27239889999998,0.062993014741446987,0.093474025813511941,-0.74364889407774581,-0.48908894483605497,0,0,0,0
839.28764960000001,0.064335960857399926,0.23789562707534539,-0.74798696073064053,-0.5562457150425274,0,0,0,0
839.30431050000004,0.065844407094462473,0.1165993205900966,-0.75236409432210805,-0.49013703929161712,0,0,0,0
839.32062889999997,0.066342957300768557,-0.0044990891489778209,-0.75619036838834575,-0.4240384289350666,0,0,0,0
839.33764150000002,0.065832506581752756,-0.12559265527301536,-0.75946582839718713,-0.3579400431691242,0,0,0,0
839.35400689999994,0.065351422131482345,0.019165381278896498,-0.76271105394641947,-0.42511177572845038,0,0,0,0
839.36939719999998,0.066076570115322308,0.16393741667924688,-0.76651604062674927,-0.49228400113143977,0,0,0,0
839.38562230000002,0.068008853000208841,0.30892453792615626,-0.77088082200112851,-0.55946424056879629,0,0,0,0
839.40231510000001,0.070112051245391896,0.18837676144601914,-0.77528490747863266,-0.49339011172355174,0,0,0,0
839.41913899999997,0.071212041473257562,0.068142307850633285,-0.7791384445816707,-0.42733200901723456,0,0,0,0
839.43567629999995,0.071310683998681998,-0.05197104987255094,-0.78244152852623938,-0.36128010216978201,0,0,0,0
839.45264780000002,0.070408236554731343,-0.17215567173254104,-0.78519417235256361,-0.29522451009531531,0,0,0,0
839.46845159999998,0.069542059641995987,-0.026658107913117075,-0.78791689258115638,-0.36242761183527838,0,0,0,0
839.4853554,0.069888029820060787,0.11878993154027494,-0.79119962622094131,-0.42962884687748609,0,0,0,0
839.50226599999996,0.071446520117911819,0.26438955533044423,-0.79504238675443228,-0.49683563991009105,0,0,0,0
839.51886000000002,0.073181074015606432,0.14446443114392912,-0.79892468669897931,-0.43079147965945147,0,0,0,0
839.53541749999999,0.073917336355738258,0.024782962412680704,-0.80225667432899461,-0.3647598336035599,0,0,0,0
839.55205460000002,0.073656587980642188,-0.094846782036236449,-0.80503841540815013,-0.29873082944691343,0,0,0,0
839.56811709999999,0.072398509976744671,-0.21461677581483454,-0.80726989329564647,-0.23269457481159747,0,0,0,0
839.58448109999995,0.071179724370329642,-0.068813625635822551,-0.80947158179587164,-0.29991037993272307,0,0,0,0
839.60175409999999,0.071175405507332576,0.076881892937386814,-0.81223338132182221,-0.3671221954543783,0,0,0,0
839.61730910000006,0.072385442016711488,0.22267088403608531,-0.81555528747808759,-0.43433740802254706,0,0,0,0
839.63402069999995,0.073772968084232754,0.10289468118489614,-0.81891680037769499,-0.36830072385264856,0,0,0,0
839.65065049999998,0.074163183529604493,-0.016704454469100304,-0.82172804994130944,-0.30227313777742049,0,0,0,0
839.66761929999996,0.073556814202507023,-0.13631846260339223,-0.82398907337717198,-0.23624476006988587,0,0,0,0
839.68456760000004,0.071952986446855771,-0.25613924335489313,-0.82569982545531384,-0.17020570942971266,0,0,0,0
839.70007290000001,0.070387818666060198,-0.1104388522442392,-0.82738075635874919,-0.23741677319412088,0,0,0,0
839.71680319999996,0.07003603639096595,0.03509630839856314,-0.82962175045879982,-0.30462171686753764,0,0,0,0
839.7321058,0.070897048068999421,0.18066733323664649,-0.83242278565041294,-0.3718279482527389,0,0,0,0
