Time,Theta,ThetaDot,X,XDot,Out1,Out2,Out3,Out4
1746.7527970000001,0.22006402695756705,0.039054866324228339,-6.7666089852198174e-06,-0.0017324127246730798,0,0,0,0
1746.7698846999999,0.2210480677440419,0.20767406362020399,-0.00028715532148123842,-0.069816212156346508,0,0,0,0
1746.7859361000001,0.22242660203909212,0.11759332147786943,-0.00061659108688010499,-0.0052135032297606701,0,0,0,0
1746.8024829999999,0.22305542122135577,0.027729698786898422,-0.00040772545521166567,0.059376851245085918,0,0,0,0
1746.8187178000001,0.22293571576154014,-0.062075214739342147,0.00033937393407302413,0.12396389327890656,0,0,0,0
1746.8351875000001,0.22206735631245875,-0.15197977709566887,0.0016247148109252449,0.18855666776233021,0,0,0,0
1746.8514843999999,0.22044889378536378,-0.24214238589592807,0.0034483802532669808,0.25316421081418561,0,0,0,0
1746.8677544,0.21807755866860945,-0.33272156733176306,0.0058105285667462642,0.3177955375156884,0,0,0,0
1746.8837739000001,0.21494925963185507,-0.42387605739766487,0.0087113930566818463,0.38245962803360273,0,0,0,0
1746.9004311000001,0.21105858149937137,-0.5157648704551111,0.012151281674788818,0.44716541110577901,0,0,0,0
1746.9165989999999,0.20741333835931122,-0.34873625262094343,0.015611963988963426,0.37914798401203781,0,0,0,0
1746.9330104999999,0.20515830130480736,-0.18210995706929337,0.01850585018663127,0.31113437799939764,0,0,0,0
1746.9491029000001,0.20327502419842905,-0.27579669836070009,0.021351667932060954,0.37591430845048707,0,0,0,0
1746.9663966000001,0.20060929523679374,-0.36995499017423883,0.024737416686753898,0.44072102200283486,0,0,0,0
1746.9828124000001,0.1971565465912572,-0.46474825432952044,0.028663355515377922,0.50556369027746806,0,0,0,0
1746.9989095999999,0.19392882832744368,-0.29966074718405455,0.032610929909363318,0.43760786501292903,0,0,0,0
1747.0145511000001,0.19207531996255633,-0.13492901256176479,0.035992225419651476,0.36965670775042353,0,0,0,0
1747.0314192999999,0.19057482100948603,-0.23126263423582219,0.039326229903432978,0.43456396589843138,0,0,0,0
1747.0481480000001,0.18827013016897134,-0.3279872224326843,0.043201208153870872,0.49949335347096413,0,0,0,0
1747.0649857999999,0.18515733700462025,-0.42526980353960453,0.047617381177823465,0.56445422675448065,0,0,0,0
1747.0818998,0.18123113880484112,-0.52327750588548205,0.052575047650717494,0.62945586002718878,0,0,0,0
1747.0982124,0.17750653999651486,-0.3605436390553004,0.057555387198020218,0.5615851557157765,0,0,0,0
1747.1147106000001,0.17513621700633056,-0.19824725028549109,0.06197016828022716,0.49372184356061383,0,0,0,0
1747.1308664000001,0.17309443410877637,-0.29808989144949788,0.066338718120633758,0.55880147656904611,0,0,0,0
1747.1473430000001,0.17021878790477812,-0.39843420830490212,0.0712497015655955,0.62390924375942558,0,0,0,0
1747.1638430999999,0.16650442929125192,-0.49945133012964454,0.076703390040531005,0.68905459153134696,0,0,0,0
1747.1808185,0.16296990276206499,-0.33888557326815549,0.082180682829998047,0.62126022472684383,0,0,0,0
1747.1965537000001,0.16077164405478631,-0.17874161738776378,0.087093058257204065,0.55347438696057294,0,0,0,0
1747.2132333,0.1588810984556408,-0.28147341018969152,0.09196009271443277,0.61869361807976986,0,0,0,0
1747.2292775999999,0.15613274373698921,-0.38467410932408769,0.097370716069310581,0.68393895179776321,0,0,0,0
1747.2459875,0.15252199017270193,-0.48851833546569018,0.10332518330442406,0.74921995709616218,0,0,0,0
1747.2623582000001,0.1490703410297744,-0.33005956995857966,0.10930415491919115,0.68150286067006471,0,0,0,0
1747.2791832,0.14693740650760251,-0.17202097643282438,0.11471885824681505,0.6137954988719565,0,0,0,0
1747.2953941999999,0.14509203086865435,-0.27752440520151633,0.12008909295606576,0.67914880053534477,0,0,0,0
1747.3118870999999,0.14236579412758429,-0.38348578636604297,0.12600403050526282,0.74452737212134934,0,0,0,0
1747.3281472000001,0.13875418555106059,-0.49008287099607467,0.13246391925638468,0.80994086132234688,0,0,0,0
1747.3443146,0.13528122318552629,-0.33374512970297732,0.13894921157868456,0.74230425183533277,0,0,0,0
1747.3608071000001,0.13310924665411605,-0.17784101504719918,0.14487091255553616,0.67467886692610812,0,0,0,0
1747.3767107000001,0.13120459910837026,-0.28610346716719082,0.15074902972544518,0.74016560487061256,0,0,0,0
1747.3925498000001,0.12839606185270516,-0.39483379675605135,0.15717296275612694,0.80567789004401957,0,0,0,0
1747.4086503999999,0.12467903013865295,-0.50421263123195115,0.16414296247181989,0.87122540496802869,0,0,0,0
1747.4252354,0.12107968722900084,-0.35009024348501044,0.17113929600338446,0.80367538282518747,0,0,0,0
1747.4416607999999,0.11876275068630184,-0.19643153738799832,0.17757276786043025,0.73613856853896709,0,0,0,0
1747.4583864000001,0.1166920753891237,-0.30754247932675166,0.18396358567725649,0.80176287546384317,0,0,0,0
1747.4760014000001,0.1136936555060028,-0.41915185539923938,0.19090137091934822,0.86741404949658829,0,0,0,0
1747.4923586,0.10976262106696733,-0.53144297917221861,0.19838638536927022,0.93310175715110788,0,0,0,0
1747.5090666000001,0.10592702565389447,-0.37971854307773906,0.20589872895825723,0.86564794742336593,0,0,0,0
1747.5254539,0.10335366229376006,-0.22850664534319814,0.21284902355843419,0.79821005390197952,0,0,0,0
1747.541684,0.1020390313064384,-0.077609451053265971,0.21923737903014465,0.73078216465821833,0,0,0,0
1747.5584629,0.10094599608006131,-0.19189671331443309,0.22558415566508502,0.79655701013044178,0,0,0,0
1747.5743625,0.098899513102191014,-0.30648691024904773,0.23247911215384309,0.86234797941161778,0,0,0,0
1747.5910773999999,0.095896327375384144,-0.42156699671192205,0.23992242133758832,0.92816489717118134,0,0,0,0
1747.6080945000001,0.091931627583805214,-0.53732347475043585,0.2479143372842334,0.99401741008104938,0,0,0,0
1747.6249190000001,0.088035707257421478,-0.38850153363981321,0.25593477054073865,0.92668162178638813,0,0,0,0
1747.6412307999999,0.085377736236725316,-0.24021635960393684,0.26339414769160568,0.85936404210912887,0,0,0,0
1747.6575599,0.083954016474067347,-0.092269224209866357,0.27029259536502143,0.79205816295920806,0,0,0,0
1747.6735836,0.082725125821286744,-0.21006541286120148,0.27715065960474716,0.8580006802084823,0,0,0,0
1747.6902527,0.08051345173565734,-0.32818928303256123,0.28455830474179561,0.92396027726390284,0,0,0,0
1747.7065198,0.077315521635771461,-0.44683067391014575,0.29251571129673554,0.98994669965317661,0,0,0,0
1747.722845,0.073126283184577145,-0.56617880835843626,0.3010231402186711,1.0559694772691746,0,0,0,0
1747.7395759999999,0.068977673663371472,-0.42049742806005969,0.30956035096604062,0.98876499654881389,0,0,0,0
1747.7558965999999,0.066040618038746279,-0.27541013268482345,0.31753761419098742,0.92158230805985186,0,0,0,0
1747.7722624999999,0.064310941605945887,-0.13071793366409881,0.32495508436283199,0.85441438292266736,0,0,0,0
1747.7886375999999,0.062746929166511048,-0.25229201331257334,0.3323334823441545,0.92053621941396624,0,0,0,0
1747.8043328000001,0.060168413068391581,-0.37425511907553094,0.34026296603157813,0.98667778999143729,0,0,0,0
1747.8210521999999,0.056571399472131974,-0.49679962452238235,0.34874373735733882,1.0528486492377411,0,0,0,0
1747.8374235000001,0.0529901515467417,-0.35386815219729828,0.35725539212131624,0.98575933850130482,0,0,0,0
1747.8539719,0.050597861953987799,-0.21144855127787365,0.36520805241548354,0.91868998932065327,0,0,0,0
1747.8696087000001,0.049391045083038328,-0.069340894939223907,0.37260185503004017,0.85163297137907978,0,0,0,0
1747.8866939,0.048327639295294308,-0.19367996119783779,0.37995758421937775,0.91788435457784601,0,0,0,0
1747.9033658999999,0.046227069234261842,-0.31831091898557196,0.38786545829598557,0.98415024734197076,0,0,0,0
1747.9196239,0.043086141921731852,-0.44342835100198602,0.39632563550218197,1.0504401702265689,0,0,0,0
1747.9359678000001,0.039940710796755659,-0.30277497659403191,0.40481760231765546,0.98344856205581443,0,0,0,0
1747.9524988000001,0.037965508713954037,-0.16256813241402043,0.41275138226176922,0.91647514620284143,0,0,0,0
1747.9685899000001,0.037157596297331535,-0.022607506996571842,0.42012709566548767,0.8495118667334145,0,0,0,0
1747.9846617999999,0.036474807809689209,-0.14919347519419179,0.42746556086112414,0.91586802474979612,0,0,0,0
1748.0006387999999,0.034736414904645796,-0.27599889347750922,0.43535702926722802,0.982234889296554,0,0,0,0
1748.0173539,0.031939822189882158,-0.40321991463538831,0.44380162715477323,1.0486219137837018,0,0,0,0
1748.0337500000001,0.028080802516980252,-0.53105189333250435,0.45279955874011041,1.115038318324433,0,0,0,0
1748.0503510999999,0.024194821879244544,-0.39307353083679941,0.46183030027029004,1.0481648511335215,0,0,0,0
1748.0665517,0.021456234954504484,-0.25568109225965147,0.47030386565998916,0.98131626197372579,0,0,0,0
1748.0833600999999,0.019860935792217451,-0.1186754827158578,0.47822043024649102,0.91448429846463641,0,0,0,0
1748.0998169,0.018364961490348712,-0.24851801411084259,0.48610091749705653,0.9809914413916262,0,0,0,0
1748.1159267999999,0.015785669505233631,-0.37872745300590371,0.49453569206901149,1.0475158597000713,0,0,0,0
1748.1316534,0.012119231819788148,-0.50950085311494853,0.50352493346006821,1.1140665994304264,0,0,0,0
1748.1484531000001,0.0084018699663812695,-0.37432844196319831,0.51254806269039666,1.0473174621105341,0,0,0,0
1748.1647773,0.0058085889263455332,-0.23972409059666472,0.52101505309045359,0.9805934487834771,0,0,0,0
1748.1812227,0.0043354299652389114,-0.1054891610644383,0.52892608059488333,0.91388594270428669,0,0,0,0
1748.1968879000001,0.0029383447564320713,-0.23814298681244814,0.5368020850002615,0.98052171961831103,0,0,0,0
1748.2138376,0.0004345992901739879,-0.37114220457703306,0.54523344287420294,1.0471732455607978,0,0,0,0
1748.2296679999999,-0.0031794597816213934,-0.50468503892311789,0.55422032008176936,1.1138493307632169,0,0,0,0
1748.2468615,-0.0068673876779645343,-0.37225221226514055,0.56324211879046882,1.047223314947028,0,0,0,0
1748.2628520000001,-0.0094540863942746134,-0.24039316441434516,0.57170880935039436,0.98062356710455079,0,0,0,0
1748.2797702,-0.010943565746275433,-0.1089101543079847,0.57962057612954776,0.91404119288968777,0,0,0,0
1748.2960912000001,-0.011338184070455462,0.022395405875636536,0.58697752834798367,0.84746705798667299,0,0,0,0
1748.3125580000001,-0.011680322665973115,-0.11297859461086951,0.59430052954885193,0.9142260680527643,0,0,0,0
1748.3283587999999,-0.013151043596688379,-0.24850726579277166,0.60217987639508996,0.98099190397453462,0,0,0,0
1748.3444391999999,-0.015752417252657396,-0.3843905379008819,0.6106156600302074,1.0477733036629504,0,0,0,0
1748.3605568,-0.018446595342554481,-0.25415533279473551,0.61908722221561052,0.98124764968892875,0,0,0,0
1748.3773205,-0.020057180127283157,-0.12432037890575941,0.62700448381126195,0.91474081847669242,0,0,0,0
1748.3931904000001,-0.020586734812365701,0.0053121220021186879,0.6343675656473855,0.84824355533783713,0,0,0,0
1748.4099197999999,-0.021077666966311078,-0.1317132124498083,0.64169732638236876,0.91507666324143011,0,0,0,0
1748.4259824999999,-0.022711042752082487,-0.26891892063466322,0.64958405406788411,0.98191753930396852,0,0,0,0
1748.4427903999999,-0.02548914786453221,-0.40650519626327142,0.65802784686179372,1.0487747017218869,0,0,0,0
1748.4597378000001,-0.028374617433706135,-0.27806975126051603,0.66650807471814721,0.98233155646324732,0,0,0,0
1748.4761675,-0.030191649196632912,-0.15007506438794133,0.67443469854122295,0.9159095163031814,0,0,0,0
1748.4927092,-0.030943148022837843,-0.022324383562361074,0.68180785777914699,0.84949922140799861,0,0,0,0
1748.5089,-0.031671535280129504,-0.16118747347171397,0.68914840056441273,0.9164140611583188,0,0,0,0
1748.5246447,-0.033557838286146793,-0.3002712850924214,0.69704659728236262,0.98333812873911164,0,0,0,0
1748.5405877000001,-0.036604679432918785,-0.43977609827946806,0.70550255717571575,1.0502796582281866,0,0,0,0
1748.5575421999999,-0.039775482412397707,-0.31341849468327143,0.71399569762420156,0.9839321550467417,0,0,0,0
1748.5743500999999,-0.04189539444324842,-0.18756117125394381,0.72193604403093015,0.91760906476023563,0,0,0,0
1748.5905769999999,-0.042967821990219181,-0.062008796651809521,0.72932376308655944,0.85130094158165026,0,0,0,0
1748.6070748,-0.042994541516691832,0.06343447151649885,0.73615894206913191,0.78499817991489074,0,0,0,0
1748.6234992,-0.043016309988740051,-0.077464668846534177,0.74296233055218452,0.85200282543041173,0,0,0,0
1748.6390833,-0.044212481747245444,-0.21846185699998116,0.75032410088689416,0.91901142382997081,0,0,0,0
1748.6551148000001,-0.046584659334961871,-0.3597580550865484,0.75824431766605616,0.98603204785872101,0,0,0,0
1748.6712797,-0.049095774044733108,-0.23520436421422761,0.76620239604618579,0.91976927432635369,0,0,0,0
1748.6878197000001,-0.050570566555055881,-0.11103228075969196,0.773608365212337,0.8535254330328399,0,0,0,0
1748.7042921,-0.051011456366015208,0.012952976314951171,0.78046234539422221,0.78729088902695288,0,0,0,0
1748.7202109,-0.051459373851079362,-0.12935926306423004,0.7872850784858284,0.85435714767312276,0,0,0,0
1748.7373642,-0.053093752876817127,-0.27184182786471078,0.79466671773505504,0.92143009547526566,0,0,0,0
1748.7544541,-0.055916797413207778,-0.41469540238248331,0.80260734946333268,0.98851751775796315,0,0,0,0
1748.7703948000001,-0.058892657172279456,-0.29193308056027423,0.81058646093318543,0.92233775243838567,0,0,0,0
1748.786233,-0.060847484670946798,-0.16964529087750047,0.81801417419020883,0.85618185138896674,0,0,0,0
1748.8030945999999,-0.061784480016920919,-0.04763883207121207,0.82489065051914834,0.79004016176932712,0,0,0,0
1748.8194891000001,-0.061705231609585978,0.07427988088177663,0.83121597019206506,0.7239029006394172,0,0,0,0
1748.8359733,-0.061649110623767045,-0.069814100179232674,0.83751077343959268,0.7910462320124706,0,0,0,0
1748.8521592,-0.062793965155393913,-0.2139929584893043,0.84436511165639616,0.85819276425115898,0,0,0,0
1748.8680996000001,-0.065141287943675172,-0.35845763863153723,0.85177904124974158,0.92535007829180094,0,0,0,0
1748.8842001,-0.067655217861035385,-0.23740030547938476,0.85923207613950148,0.85925122788665265,0,0,0,0
1748.9002559,-0.069161996717052643,-0.11673391900709769,0.86613437180424235,0.79317229824500823,0,0,0,0
1748.9162619000001,-0.069664131302852123,0.0037338668618916498,0.87248605615646069,0.72710351444504984,0,0,0,0
1748.9331946,-0.069162524417312118,0.12419563660399915,0.8782871752554321,0.6610350155781427,0,0,0,0
1748.9489424999999,-0.068695275477298409,-0.021124450269033021,0.88405828594370317,0.72823076008586896,0,0,0,0
1748.9663426,-0.06943895292823743,-0.16646113670702797,0.89038935827336518,0.79542708532530459,0,0,0,0
1748.9829192,-0.071394480635783089,-0.31201543637195461,0.897280426154628,0.86263141315692937,0,0,0,0
1748.9995629,-0.073525958699644067,-0.192114538573602,0.90421102363222849,0.79658779737881635,0,0,0,0
1749.015817,-0.074659645673167088,-0.072533779759474754,0.91059132866538384,0.73056062852043613,0,0,0,0
1749.0326637000001,-0.074797460677516373,0.046918553235612899,0.91642143991523894,0.66454006045290082,0,0,0,0
1749.0494079,-0.074978002225139062,-0.099397141686488569,0.92222192210983267,0.73177818349511381,0,0,0,0
1749.0652413,-0.076378186199457632,-0.24583672249615976,0.92858273433683935,0.7990207491133724,0,0,0,0
1749.0820707,-0.077961779352032662,-0.12684009561825285,0.93498341704795185,0.73302077570679158,0,0,0,0
1749.0983837000001,-0.078554710511360454,-0.0080596135229493437,0.94083415043176266,0.66703196941247445,0,0,0,0
1749.1143970999999,-0.078158033860691131,0.11069598279801882,0.94613498889952519,0.60104442785578205,0,0,0,0
1749.1313181,-0.077809184793871944,-0.036138811388100121,0.95140642855272584,0.66830445533657046,0,0,0,0
1749.1483499999999,-0.078683963816767344,-0.18301041906458454,0.95723836844754029,0.7355657590918292,0,0,0,0
1749.1643243999999,-0.080783462122280741,-0.33011954808816768,0.96363084717800862,0.80283547182874837,0,0,0,0
1749.1812827000001,-0.083072850743236226,-0.21202761682760668,0.97006347727702535,0.73687723534314697,0,0,0,0
1749.1973682,-0.084379656617982052,-0.094290306849906469,0.97594653419263921,0.6709374299831703,0,0,0,0
1749.2132226000001,-0.084706092281228065,0.023282544526481812,0.98128013302160477,0.60500618278565632,0,0,0,0
1749.2294391,-0.084052784824990123,0.14088125612708746,0.98606430628565334,0.53907355740239327,0,0,0,0
1749.2464245000001,-0.083456165685502473,-0.0069125726618757648,0.99081948002825093,0.60637379738247366,0,0,0,0
1749.2629962999999,-0.084091010215307849,-0.15470315016225894,0.99613548363561655,0.67367387958457525,0,0,0,0
1749.2793180000001,-0.085958075209151816,-0.3026910764563453,1.0020123431178494,0.74098078117275246,0,0,0,0
1749.2958808000001,-0.088022732301371198,-0.18557451895720004,1.0079297016070174,0.67506932440279199,0,0,0,0
1749.3121083999999,-0.089112771722803449,-0.068770960504434972,1.013297868705058,0.60917423278482929,0,0,0,0
1749.3290583,-0.089230061791608445,0.047909076189486526,1.0181169421399232,0.5432855978266421,0,0,0,0
1749.3453558000001,-0.088374891311496992,0.16465517181325165,1.022386936840938,0.47739346563870599,0,0,0,0
1749.3618888000001,-0.08758290479502219,0.016163216735060132,1.0266282239245916,0.54472273936405868,0,0,0,0
1749.3777408999999,-0.088028077816963507,-0.13229426157997157,1.0314305787299551,0.61205078404404234,0,0,0,0
1749.3941367,-0.089710906417717673,-0.28091774647765477,1.0367940178503174,0.67938445694006344,0,0,0,0
1749.4109168,-0.091596908737470173,-0.16450936720494966,1.0421982078122705,0.6135070523696724,0,0,0,0
1749.4269016000001,-0.092514063777156055,-0.048380514338198496,1.0470534835690517,0.54764432265015162,0,0,0,0
1749.4428256000001,-0.092463962905013658,0.067657772649245732,1.0513599286669071,0.4817863373463433,0,0,0,0
1749.4588114999999,-0.091446622435747665,0.18379452000591828,1.0551175437249896,0.4159231341548395,0,0,0,0
1749.4745382999999,-0.090497082890293248,0.034809944248291987,1.0588466580548759,0.48327275196336411,0,0,0,0
1749.4915647,-0.090788710477783197,-0.11411514743111753,1.0631370064598733,0.55062030866310097,0,0,0,0
1749.5081932000001,-0.092321792374370965,-0.2631811365018063,1.0679885982389905,0.61797257375714343,0,0,0,0
1749.5245328000001,-0.09406193017539119,-0.14726461823717121,1.072881116109895,0.55211888262252751,0,0,0,0
1749.5410475000001,-0.094837211359999729,-0.031599994198506433,1.0772249118732993,0.48627845119738278,0,0,0,0
1749.5567632,-0.094648998425176559,0.084001332881920812,1.0810200572205693,0.42044133518033611,0,0,0,0
1749.5736029,-0.093497081956740932,0.19972799776471539,1.0842665408429009,0.35459756901054834,0,0,0,0
1749.5901011999999,-0.092416050412590031,0.050417630845436351,1.0874846614385796,0.4219605490140953,0,0,0,0
1749.6065493000001,-0.092578819653748229,-0.098812424403147442,1.0912641248486781,0.48932078675909002,0,0,0,0
1749.6230972999999,-0.093985502934654006,-0.24816247351196974,1.0956049344503505,0.55668499272484251,0,0,0,0
1749.639852,-0.095601717180216469,-0.1325571167340284,1.0999867821606668,0.49084636338583665,0,0,0,0
1749.6565783000001,-0.096255574933278687,-0.017179912118901079,1.1038200284800663,0.42501976295101168,0,0,0,0
1749.6729166,-0.095948241697575848,0.098157513747619579,1.1071047348017724,0.35919523815210508,0,0,0,0
1749.6887538000001,-0.094679313022155362,0.21364354923548717,1.1098408794790779,0.2933628232524223,0,0,0,0
1749.7055089999999,-0.093483051330421799,0.064148823437287325,1.1125487401648975,0.36073328888864908,0,0,0,0
1749.7222575000001,-0.093532055299194783,-0.085247284633020212,1.115818003742358,0.4281004151191008,0,0,0,0
1749.7387044,-0.094826285399912669,-0.23474503514197026,1.1196486684702036,0.49547087946165669,0,0,0,0
1749.7544101000001,-0.096331300756710272,-0.11929280741058595,1.1235204286112017,0.42963974165913427,0,0,0,0
1749.7711677,-0.096875151444592064,-0.0040471782318729369,1.1268436453860924,0.36381950341122143,0,0,0,0
1749.7866382,-0.096458823708111902,0.11118013147731462,1.1296183707483898,0.29800020558703993,0,0,0,0
1749.8037634,-0.095081734700940321,0.22657739620058517,1.131844573593656,0.23217188440939299,0,0,0,0
