Time,Theta,ThetaDot,X,XDot,Out1,Out2,Out3,Out4
2238.7235651999999,0.4296384890547425,0.073605322379831264,-1.1881122212453862e-05,-0.0030416525541292661,0,0,0,0
2238.7390675000001,0.43100501112994954,0.26642816656356649,-0.00030507769663472252,-0.071609231799181924,0,0,0,0
2238.7560672,0.4330490930363261,0.22141388217909105,-0.00065776651285816637,-0.0091354690961856326,0,0,0,0
2238.7724063999999,0.43471973427588995,0.17681457764657735,-0.0004899290803892049,0.053316431861973476,0,0,0,0
2238.7884628000002,0.43602007002039167,0.13254768645218901,0.0001982695379207586,0.11575084449759493,0,0,0,0
2238.8049064000002,0.43695254984844212,0.08853124642429476,0.0014067005419670438,0.17817209741175857,0,0,0,0
2238.8215802,0.43751894221406817,0.04468375435671007,0.0031352710626131922,0.24058448509259706,0,0,0,0
2238.8369819,0.43772033770256935,0.00092402034225035068,0.0053839239196392386,0.30299227874118567,0,0,0,0
2238.8538828999999,0.43755715107176174,-0.042828978060195179,0.0081526374702252536,0.36539973717208463,0,0,0,0
2238.8700952999998,0.43702912207762784,-0.086656241723363656,0.011441425548439388,0.42781111774997893,0,0,0,0
2238.8867636,0.43613531508419251,-0.13063889582353988,0.015250337495888593,0.49023068732614178,0,0,0,0
2238.9037413999999,0.43487411745818627,-0.17485833559721134,0.019579458283390395,0.55266273313866576,0,0,0,0
2238.9203117000002,0.43324323674983128,-0.21939637188398467,0.024428908723217589,0.61511157363855762,0,0,0,0
2238.9368865000001,0.43123969666197354,-0.26433537633804899,0.02979884577113812,0.67758156919984458,0,0,0,0
2238.9532429000001,0.42885983181087672,-0.30975842616054061,0.035689462917101129,0.74007713266569708,0,0,0,0
2238.9691343,0.42609928128337476,-0.35574944816386062,0.04210099066298869,0.80260273967409379,0,0,0,0
2238.98569,0.4229529809968558,-0.40239336192539105,0.049033697085341138,0.86516293869555683,0,0,0,0
2239.0016823000001,0.41941515487082531,-0.44977622172095416,0.056487888480349663,0.92776236070170592,0,0,0,0
2239.0183007999999,0.41547930482168394,-0.49798535684627721,0.064463910087669329,0.99040572836653984,0,0,0,0
2239.0346389000001,0.41113819959599535,-0.54710950983589979,0.072962146888711471,1.0530978646820586,0,0,0,0
2239.0513348999998,0.40638386246205277,-0.59723897197129294,0.081983024473996191,1.1158437008456923,0,0,0,0
2239.0675589000002,0.40120755778514994,-0.64846571533101882,0.091527009972850126,1.1786482832484797,0,0,0,0
2239.0836777,0.39559977651880385,-0.70088352047278313,0.10159461303718156,1.2415167793595034,0,0,0,0
2239.0999817000002,0.38955022065248912,-0.75458809864705101,0.11218638686921317,1.3044544822630491,0,0,0,0
2239.1162017000001,0.38304778666644906,-0.80967720722099723,0.12330292928085022,1.3674668135596835,0,0,0,0
2239.1324522999998,0.376080548056136,-0.86625075673606577,0.13494488376975664,1.4305593242900345,0,0,0,0
2239.1486949999999,0.3686357370030881,-0.92441090772803514,0.14711294059413749,1.4937376934797768,0,0,0,0
2239.1651683,0.3616601290430031,-0.73820680153610019,0.15929352912900585,1.4253213651943695,0,0,0,0
2239.181552,0.35623381326648107,-0.55259530113833055,0.17090384978510925,1.3568731054708214,0,0,0,0
2239.1979041,0.35138714598785387,-0.61466045305314432,0.18245833770564709,1.4201698280428212,0,0,0,0
2239.2141247999998,0.34601897271704568,-0.67784556151229647,0.1945405365441174,1.4835286548374564,0,0,0,0
2239.2308463999998,0.34011951550066144,-0.74226483269697463,0.2071509885894964,1.5469559376059085,0,0,0,0
2239.2479352999999,0.33367803811746788,-0.80803416809823259,0.2202902893855512,1.610458110450355,0,0,0,0
2239.2645490999998,0.32668283156010458,-0.87527126169532865,0.23395908840239593,1.6740416854389331,0,0,0,0
2239.2812631000002,0.31912119877342354,-0.94409567958112417,0.24815808965700978,1.7377132443951426,0,0,0,0
2239.2972543000001,0.31195994112823294,-0.76344315080519276,0.26237215656608642,1.6693886112486023,0,0,0,0
2239.3135772999999,0.30630130170568604,-0.58348588050945971,0.27601676881649329,1.6010440545438551,0,0,0,0
2239.3300770000001,0.30115518096973437,-0.65632049991323671,0.28960801003400144,1.6648523053289896,0,0,0,0
2239.3470023999998,0.29539758193796234,-0.73033618956380031,0.3037312417644063,1.728727146037766,0,0,0,0
2239.3637290000001,0.28901815005369502,-0.80566433922521907,0.31838704734212026,1.7926758554830369,0,0,0,0
2239.3800451000002,0.28200543047270216,-0.88243772492489891,0.33357607082330726,1.8567057265591433,0,0,0,0
2239.396643,0.27434685630578648,-0.96079055665033875,0.34929901703984717,1.9208240489896145,0,0,0,0
2239.4131419,0.267025102655292,-0.78562719261024261,0.36503948801586406,1.8526247285938404,0,0,0,0
2239.4289757000001,0.26115984298854034,-0.61125468949411932,0.38021159494832313,1.784416873045348,0,0,0,0
2239.4454383000002,0.25574482842638885,-0.69369321163532582,0.39533274313539696,1.8486864172677648,0,0,0,0
2239.4614777000002,0.24963812602903587,-0.77736063273373901,0.41098973687448226,1.9130254698198852,0,0,0,0
2239.4772272,0.24282892773373832,-0.86240233473725736,0.42718318638833563,1.9774419521352014,0,0,0,0
2239.4939420999999,0.23530521022997763,-0.94896465405188557,0.44391376762978335,2.0419437081804488,0,0,0,0
2239.5106790999998,0.22806205057187937,-0.77892077025335771,0.46066409535512509,1.9738811253998392,0,0,0,0
2239.5271085999998,0.22223249268236339,-0.60972497930053471,0.47684724001161,1.9058202158979387,0,0,0,0
2239.5434261,0.21679846092708174,-0.70029262537120696,0.49298160451590356,1.9704791371805934,0,0,0,0
2239.5591297000001,0.21060504313484646,-0.79207975149639509,0.5096550555279552,2.0352066623208094,0,0,0,0
2239.5760693000002,0.20364146678836451,-0.88524265196369245,0.52686819743497548,2.1000111330854532,0,0,0,0
2239.5919348000002,0.19691234139677424,-0.71954391898163084,0.54410290227155866,2.0320734091529524,0,0,0,0
2239.6086939000002,0.19156067016441691,-0.55467601591309035,0.56077149474976273,1.9641447255496423,0,0,0,0
2239.6254960000001,0.18656086377191902,-0.65150073889434712,0.57739305503109706,2.0290989947598557,0,0,0,0
2239.6424218000002,0.18074993778984993,-0.7494417999796753,0.59455613816030872,2.0941155613871554,0,0,0,0
2239.6592433999999,0.17411794662857027,-0.84866376663020437,0.61226129736021706,2.1592031129559319,0,0,0,0
2239.6760482,0.16665357304069833,-0.94933125329857715,0.63050915738109181,2.2243701049176674,0,0,0,0
2239.6924383999999,0.15936917397119021,-0.78908495601104978,0.64878092838952495,2.1566240433501713,0,0,0,0
2239.7083861000001,0.1534162516152496,-0.62980716554042482,0.66648822351836956,2.0888968292815853,0,0,0,0
2239.7250456000002,0.14878745281734712,-0.47131321210102123,0.68363119250659043,2.0211863714838296,0,0,0,0
2239.7406934000001,0.14444875309323915,-0.57670704497837455,0.70072969235545146,2.0865465717887641,0,0,0,0
2239.7566031000001,0.13922813371822421,-0.68306315003500462,0.71837305964208409,2.151959367763673,0,0,0,0
2239.7735517000001,0.13311689199731069,-0.79055649838290631,0.73656176819281849,2.2174338062375276,0,0,0,0
2239.7905575,0.12610486893786721,-0.89936156907676446,0.75529636606597383,2.2829786250728135,0,0,0,0
2239.8073568,0.11921269722091613,-0.74530844187376399,0.77405740303219761,2.2154547464115728,0,0,0,0
2239.8238206999999,0.11360036987351804,-0.59222854112108192,0.79225584846397046,2.147957754537412,0,0,0,0
2239.8403336000001,0.10926051672866417,-0.43993163941029079,0.80989191132479454,2.080483600905445,0,0,0,0
2239.8570746,0.10515288622551591,-0.55310685686121963,0.82748600534533678,2.1462142346691371,0,0,0,0
2239.8737292000001,0.10009875137189143,-0.66717913714011168,0.84562803359238392,2.2119923156072905,0,0,0,0
2239.8908839999999,0.094089922702806125,-0.78233109237387977,0.8643184271450004,2.2778269159489701,0,0,0,0
2239.9068535000001,0.087116692787901698,-0.89874431114797171,0.88355769117408178,2.3437267051563317,0,0,0,0
2239.9238261,0.080205137539158047,-0.75098119439021271,0.90282591991217642,2.2764496240025429,0,0,0,0
2239.9404202999999,0.074520770558436047,-0.60425210756486814,0.92153364738314925,2.2092077810617536,0,0,0,0
2239.9566871000002,0.070055724615669418,-0.45836445335268683,0.93968114663965452,2.1419957358229316,0,0,0,0
2239.9730315000002,0.065764945655885046,-0.57910412650149878,0.95778924009391408,2.2080840794959697,0,0,0,0
2239.9893667000001,0.060464578648605626,-0.70075376644442167,0.97644824266431174,2.2742182743905963,0,0,0,0
2240.0057738,0.054146305639459012,-0.82350124316495554,0.99565857080779441,2.3404070323419588,0,0,0,0
2240.0221151000001,0.047840328807537726,-0.68121891311748128,1.0149000052537773,2.2733531970901337,0,0,0,0
2240.0386314000002,0.042716084296304538,-0.53991450960721965,1.0335828105878306,2.2063373661536558,0,0,0,0
2240.0550182000002,0.038766181905210272,-0.39939315283200838,1.0517072776869194,2.1393527932243761,0,0,0,0
2240.0713921000001,0.034943992793050431,-0.52595987314684278,1.069794405288564,2.2057108902678624,0,0,0,0
2240.0877565999999,0.030064079229712243,-0.65332920388206384,1.0884346618119582,2.2721076037500598,0,0,0,0
2240.1038361999999,0.024119001503750091,-0.78169316198630012,1.1076284026953962,2.3385514524773359,0,0,0,0
2240.1204785,0.018141184503992224,-0.64458898523932984,1.1268552364428204,2.2717189829471214,0,0,0,0
2240.1358445000001,0.013302026673659236,-0.50844263772510234,1.1455252972284382,2.2049272775008935,0,0,0,0
2240.1518418000001,0.0095943066689991186,-0.37305898856159547,1.1636388953842483,2.1381687040687258,0,0,0,0
2240.1687909000002,0.0059707247010774775,-0.5049519413991107,1.181717109656041,2.2047702679613757,0,0,0,0
2240.1854745000001,0.0012452477930805191,-0.63759298189902192,1.2003504641071985,2.271405865231888,0,0,0,0
2240.2020051999998,-0.0045891192117185403,-0.77117657957733343,1.2195392743968827,2.3380835987775423,0,0,0,0
2240.2178522999998,-0.01049925466953539,-0.63918487413328695,1.2387630876442097,2.2714767017366602,0,0,0,0
2240.2339471,-0.01531341497888423,-0.50817170645581,1.2574320230468581,2.2049143863551399,0,0,0,0
2240.2511426999999,-0.019038999105599169,-0.37794331015980703,1.2755464204024953,2.1383884332927652,0,0,0,0
2240.2682122000001,-0.022723289952734118,-0.51495624834067844,1.2936273637434474,2.2052194640578189,0,0,0,0
2240.2841468000001,-0.02755210847146666,-0.65270881734990616,1.3122653494750245,2.2720818546069408,0,0,0,0
2240.3008884999999,-0.033532383223391013,-0.7913964027356013,1.331460668439592,2.3389830431371346,0,0,0,0
2240.3169472,-0.039631703252711523,-0.66471193586626032,1.3506929062118391,2.2726150534060778,0,0,0,0
2240.3327906,-0.044679534632070243,-0.53907292975395449,1.3693722795646954,2.2062973468312568,0,0,0,0
2240.3498358000002,-0.048683845208058747,-0.41428853755414019,1.3874991744101235,2.1400213549222826,0,0,0,0
2240.3658992999999,-0.051651006380907194,-0.290166436689695,1.4050739033984505,2.0737780549468741,0,0,0,0
2240.3818611000002,-0.054625820622231779,-0.43278524415370884,1.4226173935024791,2.1408551036697805,0,0,0,0
2240.3987566999999,-0.058791318740865336,-0.57600076828981273,1.4407199439682317,2.2079551779687878,0,0,0,0
2240.4154497,-0.064153244649116384,-0.72001000637853496,1.4593817740931796,2.2750851844130908,0,0,0,0
2240.4318527,-0.069679952612475893,-0.59901399911365438,1.478082558811612,2.2089804588266055,0,0,0,0
2240.4480014000001,-0.074202273290961795,-0.47898641171857204,1.4962326681057188,2.1429246660187666,0,0,0,0
2240.4638381,-0.077727541867681826,-0.35973888859740916,1.5138324745292659,2.0769087209592754,0,0,0,0
2240.4798977999999,-0.080261519880374582,-0.24108210039751984,1.5308822735324314,2.0109231985700968,0,0,0,0
2240.4965661000001,-0.082846056366913876,-0.38848863544532786,1.5479027738256101,2.07820435979774,0,0,0,0
2240.5124446,-0.086660856335311884,-0.53641043473643735,1.5654840156166023,2.1455033493465434,0,0,0,0
2240.5295756,-0.091710984588213015,-0.68504439535750739,1.583626172071553,2.2128263514930993,0,0,0,0
2240.5457766999998,-0.096966851083621422,-0.56930109683480457,1.601809096818231,2.1469683917409346,0,0,0,0
2240.5613583999998,-0.10126199297459518,-0.45449871174315187,1.6194434038175618,2.08115964896515,0,0,0,0
2240.5784967,-0.1046035305304128,-0.34045261345244004,1.6365294670527852,2.0153908118697719,0,0,0,0
2240.5949375,-0.10699704280469502,-0.2269775329346462,1.6530675818052054,1.949652299398704,0,0,0,0
2240.6111722000001,-0.10948109618549777,-0.37874467978162929,1.6695781941617958,2.0171129147268849,0,0,0,0
2240.6275642999999,-0.1132316293960617,-0.53099559167232735,1.6866510316258949,2.0845881677683837,0,0,0,0
2240.6440223,-0.11721988781165713,-0.41934043736939602,1.7037660949056352,2.0189304992838042,0,0,0,0
2240.6604874,-0.12028057314845259,-0.30839192096565349,1.7203341656396443,1.9533107398548619,0,0,0,0
2240.6766670000002,-0.12241886070029308,-0.1979673597450074,1.7363555221601874,1.8877192367025859,0,0,0,0
2240.6935785000001,-0.12467073657013696,-0.35217759573669472,1.7523504109302157,1.9552780765537086,0,0,0,0
2240.7097896999999,-0.12820927733328533,-0.50682689336979869,1.7689083337817491,2.0228490162097628,0,0,0,0
2240.7266685,-0.13200761517936488,-0.39810666472430656,1.785509456723166,1.9573326269035169,0,0,0,0
2240.7425422000001,-0.13490272416415841,-0.2900644985507887,1.8015647603453082,1.8918530931747808,0,0,0,0
2240.7592331999999,-0.13689955220840222,-0.18252048866057874,1.8170745141572271,1.8264007563808806,0,0,0,0
2240.7756537999999,-0.13903154893691866,-0.33899048361990997,1.8325587626387867,1.8940481603958754,0,0,0,0
2240.7917769000001,-0.14246894092253243,-0.49587347363467077,1.8486067763690806,1.961705809215377,0,0,0,0
2240.8084672999998,-0.14618705112042696,-0.38998063801225924,1.864698904462422,1.8963255725995414,0,0,0,0
2240.8244482,-0.1490254619017643,-0.28475815066414356,1.8802463477065088,1.8309821628155409,0,0,0,0
2240.8415697999999,-0.15098906850875174,-0.18002909528593972,1.8952493755326818,1.7656659665140968,0,0,0,0
2240.8579817999998,-0.15208129147821373,-0.075616463183135571,1.9097081767925517,1.7003672583805023,0,0,0,0
2240.8744461000001,-0.15333140779464052,-0.23436267553577714,1.92414249721955,1.7681038316898563,0,0,0,0
2240.8900973999998,-0.15590535060471414,-0.39338425897887186,1.9391413097734895,1.8358464366070979,0,0,0,0
2240.9073315000001,-0.15980617044751433,-0.55287430044311159,1.9547046803936294,1.9035989951158943,0,0,0,0
2240.9239932999999,-0.16401294609153375,-0.45049717499532388,1.9703132286494842,1.8383846520273661,0,0,0,0
2240.9409059,-0.16736974740083074,-0.34890064697657103,1.9853784996451254,1.7732136075182303,0,0,0,0
2240.9567333999998,-0.16988240637616664,-0.24791243214642153,1.9999008175210671,1.7080764475549397,0,0,0,0
2240.9737325000001,-0.17155531932148863,-0.14736025335368746,2.0138804274949593,1.6429636439895017,0,0,0,0
2240.9898588000001,-0.17239144700127107,-0.047071861915709515,2.0273174950561561,1.5778655910319366,0,0,0,0
2241.0064269,-0.17341558641409568,-0.2088563789299441,2.0407314096562739,1.6457148984943994,0,0,0,0
2241.0234191999998,-0.17578871932430928,-0.37087686608147874,2.0547107489006913,1.7135683091803033,0,0,0,0
2241.0394888999999,-0.17849121642590507,-0.27161198517358964,2.0687363435267074,1.6485137336454707,0,0,0,0
2241.0564295999998,-0.18036849412828945,-0.17282591316985876,2.0822199281364129,1.5834860106286435,0,0,0,0
2241.0730856,-0.18142387853620584,-0.074348686554254459,2.095161689405789,1.5184756329380547,0,0,0,0
2241.0894619999999,-0.18165927965238493,0.023989594536563377,2.1075617345807034,1.4534730462868213,0,0,0,0
2241.1056767999999,-0.18209648367107012,-0.13912222806874952,2.119939235108935,1.521370819096836,0,0,0,0
2241.1217637999998,-0.1838934098338853,-0.30238482060529964,2.1328825572370933,1.5892708671549545,0,0,0,0
2241.1385190999999,-0.18705205814393522,-0.46598824682264284,2.1463917311625789,1.6571759998848234,0,0,0,0
2241.1543071999999,-0.19055625683463631,-0.3690847994289268,2.1599478106908996,1.5922308621541583,0,0,0,0
2241.1710351000002,-0.19325558345099175,-0.27283200304878291,2.172962830188399,1.527322346250138,0,0,0,0
2241.187907,-0.19515481061099435,-0.17706362135975079,2.1854370586138172,1.4624411655746403,0,0,0,0
2241.2040691000002,-0.19625732623757575,-0.081613568555996413,2.1973706872736121,1.3975779704863363,0,0,0,0
2241.2198514000002,-0.19656513468220752,0.013684126644185203,2.2087638293924878,1.3327233723216627,0,0,0,0
2241.2367324000002,-0.19709667432604214,-0.15159463826029984,2.220135378086971,1.4006967666351409,0,0,0,0
2241.2524232000001,-0.19900603540994657,-0.31703433891155991,2.2320733773196895,1.4686719850918004,0,0,0,0
2241.2693694999998,-0.20127829792779009,-0.22247871212076775,2.2440590733458161,1.403848080617647,0,0,0,0
2241.2861119999998,-0.2027642667485578,-0.12832149243086066,2.2555046646853385,1.3390467309703367,0,0,0,0
2241.3028693000001,-0.20346662071531532,-0.034398552761402551,2.2664103030345681,1.2742586473623525,0,0,0,0
2241.3190488999999,-0.2033866714081167,0.05945412594206622,2.2767760625736706,1.2094745163349023,0,0,0,0
2241.3355821999999,-0.20354053741696651,-0.1067736440808682,2.2871206652749825,1.2774805091522985,0,0,0,0
2241.3515748999998,-0.20507992885995299,-0.27310986803632431,2.2980319871452912,1.3454875022589872,0,0,0,0
2241.3681907999999,-0.20699096720390317,-0.17977321003526497,2.3089913864879166,1.2807244734666088,0,0,0,0
2241.3846985999999,-0.20812558099885733,-0.086761249882923636,2.3194111722437882,1.2159798609216252,0,0,0,0
2241.4009590000001,-0.20848584046843488,0.0060887020304495713,2.3292914618116067,1.1512444265621231,0,0,0,0
2241.4175633,-0.20807246048631395,0.09893924600096092,2.3386322955364767,1.0865089174439087,0,0,0,0
2241.4335391999998,-0.20789982096552745,-0.067930233778321594,2.3479522693448551,1.1545364465396857,0,0,0,0
2241.4500007000001,-0.20911788154300048,-0.23486378377100472,2.35783913979893,1.2225644306738863,0,0,0,0
2241.4664816999998,-0.21071339340693548,-0.14233237589044245,2.3677743405303087,1.1578417888936874,0,0,0,0
2241.4822810000001,-0.21153893608094249,-0.050060539830526371,2.3771702498314697,1.0931338819670235,0,0,0,0
2241.4983827000001,-0.2115960407740379,0.04211347002154231,2.3860269545543211,1.0284315068850425,0,0,0,0
2241.5151870999998,-0.2108848911197633,0.13435133468224741,2.3943444648180932,0.96372545288285116,0,0,0,0
2241.5318719000002,-0.21041864753184705,-0.032894361813533626,2.4026412913293216,1.0317652740868306,0,0,0,0
2241.5485933,-0.21134608570182933,-0.20016476636148797,2.4115051154839131,1.0998051615140181,0,0,0,0
2241.5645322999999,-0.2126541782127202,-0.10806791935576723,2.4204174109254195,1.0351046027402628,0,0,0,0
2241.5816098,-0.21319568845331391,-0.016170718658722594,2.4287905856612806,0.97041537632150077,0,0,0,0
2241.5984616000001,-0.21297165012473085,0.075688106835377467,2.4366246982506485,0.90572829604606941,0,0,0,0
2241.6145320000001,-0.21198175320186319,0.16766979104537688,2.4439197306828242,0.84103417367594324,0,0,0,0
2241.6307139,-0.21123840857320447,0.00028911742867700728,2.4511941459790219,0.9090780671382539,0,0,0,0
2241.6473044999998,-0.21188972621619126,-0.16707929944603647,2.4590355916315114,0.977121706577745,0,0,0,0
2241.663501,-0.21292248752729412,-0.075069739637995292,2.4669255466831337,0.91242612872247286,0,0,0,0
2241.6803740999999,-0.2131891677943647,0.016798066908014504,2.4742764096654013,0.84773858721658701,0,0,0,0
2241.6966738000001,-0.21269031836746727,0.10868537297097183,2.4810882116568482,0.78304989322928709,0,0,0,0
2241.7131075000002,-0.21142514691294911,0.20075342237452237,2.4873609071649581,0.71835086118131963,0,0,0,0
2241.7292234000001,-0.21040575004006143,0.033470265410564387,2.4936129469370574,0.78639096065585845,0,0,0,0
2241.7460154999999,-0.21078005826941107,-0.13376365613589375,2.5004319841585492,0.85443048212977146,0,0,0,0
2241.7625200000002,-0.21153423321486425,-0.041498958240034974,2.5072994683506389,0.78972305036306123,0,0,0,0
2241.7791716000002,-0.21151997100784045,0.050682930583772046,2.5136277485836134,0.72502029506162224,0,0,0,0
2241.7957928999999,-0.21073733010511306,0.14294370131141357,2.5194168278454905,0.66031300492850675,0,0,0,0
