Time,Theta,ThetaDot,X,XDot,Out1,Out2,Out3,Out4
2140.3064920000002,0.38772482549020915,0.067009963242375029,-1.1014487196064502e-05,-0.002819833609373202,0,0,0,0
2140.3223714000001,0.38902057652675132,0.25578700705656943,-0.00030227033760680942,-0.071364290943580669,0,0,0,0
2140.3384209000001,0.39094017467003322,0.20160099356211814,-0.00065128539878835101,-0.0084724640694614044,0,0,0,0
2140.3554159999999,0.3924097692059127,0.14779325086105968,-0.00047628629549380475,0.05439872385353408,0,0,0,0
2140.3713781000001,0.39343212413807388,0.094264484658301367,0.0002225762291189827,0.11725470543359362,0,0,0,0
2140.3876076000001,0.39400917798492807,0.040915875485000135,0.0014451965653879198,0.1801008798807037,0,0,0,0
2140.4047744999998,0.39414204710026129,-0.012351084373877129,0.0031915140031252907,0.24294262439504741,0,0,0,0
2140.4211799999998,0.39383102763127514,-0.065634754802294568,0.0054615125934107962,0.30578530576703028,0,0,0,0
2140.4373756999998,0.39307559610886905,-0.11903351213521866,0.008255221107494012,0.36863429206998083,0,0,0,0
2140.4535568000001,0.39187440866902601,-0.1726459133264388,0.011572713093126784,0.43149496433013595,0,0,0,0
2140.4700004000001,0.39022529890810553,-0.22657085952571102,0.015414107027685054,0.49437272805793081,0,0,0,0
2140.4861282000002,0.38812527437889355,-0.28090775856567451,0.019779566566457449,0.55727302451984606,0,0,0,0
2140.5022009999998,0.3855705117385817,-0.3357566858151349,0.024669300883439348,0.62020134162104834,0,0,0,0
2140.5182528999999,0.38255635056461273,-0.39121854278985135,0.030083565100840683,0.68316322425559772,0,0,0,0
2140.5347373,0.37907728585973466,-0.44739521282362971,0.036022660802254101,0.74616428396283574,0,0,0,0
2140.5508435000002,0.37512695927383793,-0.50438971298959945,0.042486936622998697,0.80921020770537022,0,0,0,0
2140.5672853000001,0.37069814907742932,-0.56230634132190838,0.04947678890950797,0.87230676555537789,0,0,0,0
2140.5833195,0.36578275893014572,-0.62125081821914174,0.056992662437722254,0.93545981704126702,0,0,0,0
2140.5997275,0.36037180549780012,-0.68133042070955852,0.065035051178222988,0.99867531586543801,0,0,0,0
2140.6167500000001,0.35445540498334777,-0.74265410802132403,0.073604499093251369,1.0619593126552964,0,0,0,0
2140.6333300000001,0.34802275865118693,-0.80533263662450394,0.082701600947722678,1.1253179553529977,0,0,0,0
2140.6501536000001,0.34203108206282118,-0.62126509940608543,0.091812031199478339,1.0569051042445354,0,0,0,0
2140.6660185999999,0.33757114010887546,-0.43772519781550701,0.10035226154028076,0.9884699358978204,0,0,0,0
2140.6815161999998,0.33366634476102558,-0.50369011591937307,0.10883738592657011,1.0519343903731211,0,0,0,0
2140.6983257000002,0.32920835807510718,-0.57056815503579006,0.11785157618948153,1.1154500653638073,0,0,0,0
2140.7140703999999,0.32418909933037066,-0.63848021600563643,0.12739528554198998,1.1790237234025418,0,0,0,0
2140.7315478,0.31859947512070252,-0.70754854627651265,0.13746902378126152,1.2426621856394968,0,0,0,0
2140.7478425999998,0.31242936768952551,-0.77789685068035608,0.14807335776869751,1.3063723290937053,0,0,0,0
2140.7643803000001,0.30566762240537987,-0.84965038533954229,0.15920891187329955,1.3701610802663022,0,0,0,0
2140.7807498000002,0.2992874371090059,-0.67051580390325394,0.17036008834782765,1.3018489086982259,0,0,0,0
2140.7967217,0.29439746757457297,-0.49201209601091084,0.18094193705894376,1.233522460549811,0,0,0,0
2140.8129568999998,0.29000398935813959,-0.56728476842661157,0.19147091272048544,1.2974351814440612,0,0,0,0
2140.8289525,0.28497936175205446,-0.64357389539864862,0.20253271422583452,1.3614055183422682,0,0,0,0
2140.844654,0.2793145854456936,-0.72101506179155761,0.21412785123458308,1.4254410315278412,0,0,0,0
2140.8614978000001,0.27299952679368433,-0.79974500751884503,0.22625689642888214,1.4895492842483735,0,0,0,0
2140.8785647,0.26701956865643667,-0.62461813806929778,0.23840330700577653,1.4213238265031503,0,0,0,0
2140.8951188000001,0.26249641766680454,-0.45012325668683212,0.24998114522424289,1.3530920821528902,0,0,0,0
2140.9115987999999,0.25842573060249308,-0.53211016320974625,0.26150777754380516,1.4173222859007786,0,0,0,0
2140.9276203999998,0.25366823975167607,-0.6150391947433278,0.27356986532566802,1.4816060937566384,0,0,0,0
2140.9439348999999,0.24821552491722371,-0.69905619810207709,0.28616788700514911,1.5459516235781805,0,0,0,0
2140.9603441999998,0.24205794728869826,-0.78430785376552592,0.29930238850797503,1.6103669492775576,0,0,0,0
2140.9767172000002,0.23518464234366451,-0.87094170931758763,0.31297398280151772,1.674860078569018,0,0,0,0
2140.9929944999999,0.22859180835150328,-0.70084872644324281,0.32666522896179673,1.606784404156419,0,0,0,0
2141.0087598999999,0.22341331210504772,-0.53151976703869241,0.33978918331868946,1.5387104102484233,0,0,0,0
2141.0255400000001,0.2196434677064075,-0.36277954848447008,0.35234586435765153,1.4706390285810984,0,0,0,0
2141.0412298000001,0.21626587851436324,-0.45363801090581429,0.36485370726170846,1.5352906761502492,0,0,0,0
2141.0576025999999,0.21212817084072161,-0.54528349986764191,0.3779004822390668,1.5999869853545872,0,0,0,0
2141.0738674999998,0.20722316621160233,-0.63787478142150877,0.39148659590334001,1.664736755602565,0,0,0,0
2141.0896966,0.20154236161310793,-0.73157100442138823,0.40561252781925611,1.7295486845829271,0,0,0,0
2141.1065119999998,0.19507592631006851,-0.82653169226645806,0.42027882953319212,1.7944313358330608,0,0,0,0
2141.1225248000001,0.18883141899744529,-0.66201144066642337,0.43496715901687188,1.7265253674170269,0,0,0,0
2141.1383679,0.18395475509582446,-0.49826774338886254,0.4490896459199501,1.658629622647479,0,0,0,0
2141.1550812,0.17941910040066439,-0.59658956070796032,0.46316551487827901,1.7236514637253049,0,0,0,0
2141.1718772999998,0.17406023812236435,-0.69592886959039957,0.47778344789125127,1.788730028501625,0,0,0,0
2141.1876707000001,0.16786903704255707,-0.79645261729986705,0.49294395241552935,1.8538741796927887,0,0,0,0
2141.2044830999998,0.16185968587060759,-0.63590226374087366,0.50812815736910999,1.7861019536283784,0,0,0,0
2141.2205299000002,0.15718507590224245,-0.47613265883636496,0.52274765493994224,1.7183449861194393,0,0,0,0
2141.2369457,0.15281277730377585,-0.5798483539207584,0.53732216227501739,1.7836248831074901,0,0,0,0
2141.2534056,0.1475725009616681,-0.68453689322944788,0.55244087129220842,1.8489582497988404,0,0,0,0
2141.2694148,0.1414554631673948,-0.79037145204402093,0.56810426298560424,1.9143541066409564,0,0,0,0
2141.2860814000001,0.13548112891390604,-0.63383552452738745,0.58379303425838858,1.8467280058795192,0,0,0,0
2141.3028069000002,0.13080796297860156,-0.47811030586285236,0.59891833621481905,1.7791221637102665,0,0,0,0
2141.3190635999999,0.12639863494455908,-0.58708516973234992,0.61400030604159561,1.8446542395556844,0,0,0,0
2141.3361361000002,0.1210775264868765,-0.69702775465690148,0.62962857380479698,1.9102384510184387,0,0,0,0
2141.352844,0.11483587604313431,-0.80811643345524065,0.64580360943862625,1.9758838210625624,0,0,0,0
2141.3689632999999,0.10869729752200141,-0.65578198126849585,0.66200575723269517,1.9084198177669096,0,0,0,0
2141.3855386,0.10382463708831867,-0.50431879678782809,0.67764580952057163,1.8409817878179418,0,0,0,0
2141.4016448000002,0.10021138610793948,-0.35353373920512243,0.69272396427880922,1.7735648477818278,0,0,0,0
2141.4187606,0.096817040531798973,-0.46839784953542574,0.70776070959027082,1.8393728160396772,0,0,0,0
2141.4345444999999,0.092462679970282263,-0.58401521555955194,0.72334600286981543,1.9052204023976964,0,0,0,0
2141.4510639,0.087141303550400256,-0.70057096627347193,0.73948021073480619,1.9711168852888132,0,0,0,0
2141.4673742999998,0.080844371279135588,-0.81824925464483778,0.75616377575472282,2.03707117694232,0,0,0,0
2141.4829874000002,0.074599719954444296,-0.67146385712643697,0.77287668300793522,1.9698298870007906,0,0,0,0
2141.4998365000001,0.069574501899467747,-0.52561156320497304,0.78902937830417363,1.9026214346429908,0,0,0,0
2141.5163026,0.065761699187880732,-0.38049775694344706,0.80462211243791359,1.8354398248719606,0,0,0,0
2141.5320378000001,0.062116782475129369,-0.5019900343397723,0.82017570823898267,1.9015615671122823,0,0,0,0
2141.5488426000002,0.057456495478525868,-0.624267260506574,0.83628046644164755,1.9677227861518654,0,0,0,0
2141.5654623,0.051773555583632364,-0.74751899018047574,0.85293675121660828,2.0339324168066306,0,0,0,0
2141.5813687,0.046099322770210539,-0.60558723282373184,0.86962428278142812,1.9668913411445501,0,0,0,0
2141.5984798999998,0.041604309651711642,-0.46452844720099556,0.88575327744590981,1.8998845847495798,0,0,0,0
2141.6150032,0.038282006731564039,-0.3241462667840293,0.90132399394412577,1.8329050517238838,0,0,0,0
2141.6313564000002,0.035086663883633198,-0.45074636123112383,0.91685739681610079,1.8992638105653243,0,0,0,0
2141.647743,0.030833773198092551,-0.57803284281358369,0.93294391256117615,1.9656557043325344,0,0,0,0
2141.6645057999999,0.025516859046031806,-0.70619890928992057,0.94958385188096817,2.0320895055724844,0,0,0,0
2141.6812097000002,0.020169254182787161,-0.56879503100267015,0.96625678478562327,1.9652430793431221,0,0,0,0
2141.6974147999999,0.015963244828305481,-0.43223636514490854,0.98237280980710073,1.8984326043881679,0,0,0,0
2141.7133352999999,0.012892553848071754,-0.29632636513805777,0.99793219623156892,1.8316502225447218,0,0,0,0
2141.7303317000001,0.0099108814032265007,-0.42756652737474804,1.0134559765310156,1.8982219019841908,0,0,0,0
2141.7470705999999,0.0058331988852256718,-0.55944102294463727,1.0295346288798839,1.9648227794487707,0,0,0,0
2141.7631623000002,0.00065345532162158055,-0.69214534694200203,1.0461684299104281,2.0314612983208447,0,0,0,0
2141.7804421999999,-0.0045942653799851112,-0.55915335006053057,1.0628368876205427,1.9648099064388835,0,0,0,0
2141.7961077,-0.0087371857972251988,-0.42701428435631517,1.0789500732304134,1.8981970540150226,0,0,0,0
2141.8130326999999,-0.011781651240260661,-0.29553264699024445,1.0945082754967692,1.8316143571850281,0,0,0,0
2141.8290869000002,-0.014774030813251723,-0.43120498710984001,1.1100325399350293,1.8983861556459745,0,0,0,0
2141.8454992000002,-0.018899310368388669,-0.56750039205301683,1.1261133361368076,1.9651850333445711,0,0,0,0
2141.8615967999999,-0.024163451634535447,-0.70461549600020523,1.142750921132256,2.0320189250414371,0,0,0,0
2141.8777427999999,-0.029532716517200019,-0.57614395816949548,1.1594248181072442,1.9655711531102278,0,0,0,0
2141.894589,-0.033835033569414842,-0.44857230172207979,1.1755451563711286,1.8991660948750224,0,0,0,0
2141.911693,-0.037077147785994059,-0.32170722386874012,1.1911122581030329,1.8327950242590074,0,0,0,0
2141.9281864999998,-0.039264187807024842,-0.19535409076947785,1.2061263711266179,1.7664488175013016,0,0,0,0
2141.9448900000002,-0.041440424462206381,-0.33578044231017429,1.2211084193442527,1.833431671403873,0,0,0,0
2141.9618595000002,-0.0447885701102703,-0.47667460185540034,1.2366487265296626,1.9004334513274419,0,0,0,0
2141.9780040999999,-0.049313300105029184,-0.61823513239272132,1.252747480393045,1.9674617498812037,0,0,0,0
2141.9939766000002,-0.05398080787025384,-0.49437255521719931,1.2688842349510558,1.9012269345033643,0,0,0,0
2142.0100971000002,-0.057619350874152937,-0.37130128942183088,1.2844691923672786,1.8350313865070258,0,0,0,0
2142.0271843999999,-0.060234774728419871,-0.24882949396563714,1.2995026440353412,1.7688658719913424,0,0,0,0
2142.0439216999998,-0.062870761455492669,-0.39288297247512061,1.3145054442326003,1.836005116885931,0,0,0,0
2142.0608935,-0.066709146364042529,-0.53747147926485805,1.3300678116545743,1.90316443814606,0,0,0,0
2142.0765230000002,-0.070716311105253213,-0.41683683667512411,1.3456693531738766,1.8370818849813748,0,0,0,0
2142.0939724999998,-0.073720969746666032,-0.296880867616657,1.36072034833683,1.7710339133495738,0,0,0,0
2142.1098777000002,-0.075728034212121653,-0.17741305927333412,1.3752210482584779,1.7050109898077273,0,0,0,0
2142.1265601,-0.077778956519723025,-0.32402658856148975,1.3896921562506088,1.7722599529076113,0,0,0,0
2142.1431314000001,-0.081053202800671742,-0.47107079109795025,1.404723727203119,1.8395241867171082,0,0,0,0
2142.1593944000001,-0.085555137371091258,-0.61874377478960552,1.4203159143867503,1.9068102563035487,0,0,0,0
2142.1757934000002,-0.090253766087404583,-0.5017688954322117,1.4359484935225377,1.8408970759612577,0,0,0,0
2142.1924285,-0.093980962597299628,-0.38562080385797193,1.4510319706990054,1.7750269307841444,0,0,0,0
2142.2079929000001,-0.096742888411154762,-0.27011290663161241,1.4655666678161223,1.7091903693442554,0,0,0,0
2142.2248731999998,-0.098544147600816617,-0.15505801138885697,1.4795528270223759,1.6433777008760242,0,0,0,0
2142.2407149000001,-0.10042342885518955,-0.30541557262934299,1.4935109347704874,1.7107825283234848,0,0,0,0
2142.2578625000001,-0.10355708707190413,-0.4561659496226067,1.508030794121862,1.778199882276964,0,0,0,0
2142.2739074000001,-0.10691426606099672,-0.34256802649686202,1.5225922756225723,1.7124523436891317,0,0,0,0
2142.2905765,-0.10932717147716513,-0.22954552777834908,1.536605987311233,1.6467354327904342,0,0,0,0
2142.3067341999999,-0.11079987502982597,-0.11691317842768846,1.5500721463459024,1.5810393747987161,0,0,0,0
2142.3233945000002,-0.11236896154751363,-0.2692270268175016,1.5635110823712086,1.6485242761167882,0,0,0,0
2142.3402851000001,-0.11520851718673607,-0.42187979399377673,1.5775124281327153,1.716019299030644,0,0,0,0
2142.3568868000002,-0.11828882462634126,-0.31053778195050979,1.5915561648691769,1.6503806149672342,0,0,0,0
2142.3731904000001,-0.12044346660294541,-0.19972259125938799,1.6050530300905024,1.584770290683104,0,0,0,0
2142.3898570000001,-0.12167611724365934,-0.089250870596578602,1.6180032218971974,1.5191785160474465,0,0,0,0
2142.4064631000001,-0.12302141624518072,-0.24328124868088399,1.6309269214992295,1.5867324501518045,0,0,0,0
2142.4231009,-0.12565133820212709,-0.39761188717169621,1.6444135995932343,1.654294774650648,0,0,0,0
2142.4395702000002,-0.12853740820593623,-0.2883105134030956,1.6579433516989144,1.5887547346975932,0,0,0,0
2142.4559551000002,-0.13051468557426793,-0.17950237600777469,1.6709270482181793,1.5232414891784636,0,0,0,0
2142.4722793000001,-0.13158657200145565,-0.071006041854757965,1.6833648741831271,1.4577452254955479,0,0,0,0
2142.4891395999998,-0.13278589823977641,-0.22658522921273314,1.6957768695383648,1.5253603738002064,0,0,0,0
2142.5063393,-0.13528265471413961,-0.38243907938341137,1.7087523489651417,1.5929826873323125,0,0,0,0
2142.5229761999999,-0.13804971561439705,-0.27503643288803181,1.7217715262848117,1.5275344689669581,0,0,0,0
2142.5397824000001,-0.13992372960506941,-0.1681076476329553,1.7342454098405768,1.462112188030682,0,0,0,0
2142.5558123000001,-0.14090794443523721,-0.061473223827158197,1.7461741775969226,1.3967060534077229,0,0,0,0
2142.5723539000001,-0.14203348061241206,-0.21849642323084287,1.7580777327277488,1.4643772874081922,0,0,0,0
2142.5886194999998,-0.1444684261499683,-0.37578022399589778,1.7705452362588598,1.5320548403093908,0,0,0,0
2142.6050756,-0.14718713594391977,-0.27020409200027773,1.7830570264232444,1.4666948897999887,0,0,0,0
2142.6211913000002,-0.14902799665375319,-0.16509624896971756,1.7950242578279081,1.4013607394340204,0,0,0,0
2142.6372098000002,-0.14999421734539237,-0.060279187556132589,1.8064471074476933,1.3360426393051268,0,0,0,0
2142.6539407,-0.15008752765800204,0.044424642453801684,1.8173256707273471,1.2707307750202614,0,0,0,0
2142.6701026000001,-0.15033594580283122,-0.11394837528878621,1.8281796392478309,1.3384545047065959,0,0,0,0
2142.6858941,-0.15190450475549883,-0.27244957901183964,1.8395979802406877,1.4061810862276702,0,0,0,0
2142.703113,-0.15479503407857148,-0.43127363758714693,1.8515807345536166,1.4739148380732008,0,0,0,0
2142.7194000999998,-0.15798435716954426,-0.32780618832937508,1.8636084095012257,1.4086544032997659,0,0,0,0
2142.7362469,-0.16031379592281669,-0.22490797911324914,1.8750923773588579,1.3434255194683051,0,0,0,0
2142.7523845000001,-0.1617874117249665,-0.12240434090882411,1.8860328635307371,1.2782185641151262,0,0,0,0
2142.7681772000001,-0.16240781031106677,-0.020120590069285859,1.8964300129017786,1.2130238364828609,0,0,0,0
2142.7840956999999,-0.16217614173270495,0.082117950978021673,1.9062838893297318,1.1478315940597599,0,0,0,0
2142.8010135,-0.16211755713617537,-0.078066734577892982,1.9161139641100071,1.2156232649034613,0,0,0,0
2142.8169695000001,-0.16339403186149701,-0.23833361553545185,1.9265089729148805,1.2834165164081113,0,0,0,0
2142.8330427000001,-0.16600700723253087,-0.39887612303766506,1.9374689441386164,1.3512151999835862,0,0,0,0
2142.8496823,-0.16893512949708489,-0.29764721116913528,1.9484745518656295,1.28606434238471,0,0,0,0
2142.8660328999999,-0.17102183194728562,-0.19693933926602009,1.9589373559360888,1.2209425574146875,0,0,0,0
2142.8822900999999,-0.17227078383451622,-0.096580289155035054,1.9688575612914885,1.1558402748473635,0,0,0,0
2142.8989277000001,-0.17268421938499984,0.003602124511930772,1.9782352928624516,1.0907478639329808,0,0,0,0
2142.9150936000001,-0.17226293806916468,0.10378005719704562,1.9870705951886707,1.0256556648330175,0,0,0,0
2142.9316217999999,-0.17202969420274836,-0.057899954011302338,1.9958827515747148,1.093502132633047,0,0,0,0
2142.9486700000002,-0.17314387207481055,-0.2196366787333163,2.0052602963713455,1.1613495251264594,0,0,0,0
2142.9654915000001,-0.17458368921578585,-0.11972517054212907,2.014683974651053,1.0962685101502752,0,0,0,0
2142.9818595000002,-0.17519187534978103,-0.020030298061125613,2.0235653651684613,1.0311996230745903,0,0,0,0
2142.9976636000001,-0.17496956573025491,0.079619464417304331,2.0319045313776289,0.96613323169473242,0,0,0,0
2143.0146128000001,-0.17493926219036601,-0.082475817346149075,2.040220726030086,1.0339947816719308,0,0,0,0
2143.0304839999999,-0.1762599539101182,-0.24465663835983104,2.0491024367035258,1.101857722961757,0,0,0,0
2143.0472371999999,-0.17791078581529265,-0.14539680945642883,2.058030469504724,1.0368077530055959,0,0,0,0
2143.0632870999998,-0.17873559087017379,-0.046398191581497709,2.0664164830793066,0.97177243454623674,0,0,0,0
2143.0793625000001,-0.17873587934106805,0.05250982982856861,2.0742605620765295,0.90674217656102585,0,0,0,0
2143.0961347000002,-0.17791173984391906,0.15149783798668864,2.0815627111513559,0.84170737518015293,0,0,0,0
2143.1131371000001,-0.1772840403541403,-0.010989623102855822,2.0888420782842729,0.90958265183930886,0,0,0,0
2143.1291354999998,-0.17801027323230409,-0.17347783214442561,2.0966870700462397,0.97745782428086814,0,0,0,0
2143.1457633999999,-0.17906921597955575,-0.074520863466903453,2.1045785052547838,0.91242410822631126,0,0,0,0
2143.1613975,-0.17930417866354864,0.024296990840574552,2.1119280299040817,0.847398184512552,0,0,0,0
2143.1778586,-0.17871565467090622,0.12314619634923521,2.1187356714423573,0.78237045500467084,0,0,0,0
2143.1938835999999,-0.17832472384689194,-0.03947649847639461,2.1255205836948705,0.85025081594294083,0,0,0,0
2143.2109544,-0.17928898358985412,-0.20213351062101409,2.1328711651846137,0.91813163648160701,0,0,0,0
2143.2271590999999,-0.18058779052709767,-0.1034584826343433,2.1402682649727724,0.8531110843576567,0,0,0,0
2143.2427213000001,-0.18106516205965162,-0.0049726052692617793,2.1471235749100717,0.78810114723247704,0,0,0,0
2143.2599270999999,-0.18072201025604714,0.093494146919022691,2.1534371460536654,0.72309224784008663,0,0,0,0
2143.2756082000001,-0.17955783041211884,0.19211177700798546,2.1592089496267302,0.65807480756997849,0,0,0,0
2143.2928401999998,-0.17859256537295953,0.02940643588088478,2.1649580742848897,0.72595735356408231,0,0,0,0
2143.3086429999998,-0.17898286250799517,-0.133252033288984,2.1712728810736506,0.7938389956954609,0,0,0,0
2143.3252321,-0.17970729143730682,-0.034462319271519062,2.1776341960845933,0.72881398846290268,0,0,0,0
2143.3409891000001,-0.17960886413438407,0.064257366933734877,2.1834536579231818,0.66379288551897841,0,0,0,0
2143.3573999999999,-0.17868749875190751,0.16307736786648735,2.1887312616449006,0.59876609262577118,0,0,0,0
2143.3741530000002,-0.17796373183261766,0.00048255971086711216,2.1939861327646897,0.66664508847236159,0,0,0,0
