Time,Theta,ThetaDot,X,XDot,Out1,Out2,Out3,Out4
2263.3292047999998,0.44011679324465447,0.0752255544777614,-1.2083749604009447e-05,-0.0030935132472758534,0,0,0,0
2263.3462743,0.44150052188992178,0.26899636655377807,-0.00030571295418499125,-0.071661081659035619,0,0,0,0
2263.3618319000002,0.44357497970791843,0.22628068058919154,-0.00065923618644005708,-0.0092903345867024895,0,0,0,0
2263.3788297000001,0.44529518345988001,0.18398881637862458,-0.0004930923643589718,0.053058317237340342,0,0,0,0
2263.3957223000002,0.44666435855071357,0.14204244941644092,0.00019255047643619973,0.11538898394326554,0,0,0,0
2263.4121792999999,0.44768508026061715,0.10036389084323163,0.0013975583596099164,0.17770572837829898,0,0,0,0
2263.4279744,0.44835927849690527,0.058875947840410094,0.0031218310143204843,0.240012576424699,0,0,0,0
2263.4449914000002,0.44868824138195301,0.017501783909246151,0.0053653016077778466,0.30231352740589923,0,0,0,0
2263.4598780000001,0.44867261767655742,-0.023835220902510931,0.0081279365647641284,0.36461256455039387,0,0,0,0
2263.4760510999999,0.44831241803845789,-0.065211609784187247,0.011409735474493666,0.42691366548722953,0,0,0,0
2263.4919596,0.447607015116052,-0.10670398892605051,0.01521073108498255,0.48922081274949725,0,0,0,0
2263.5089195,0.44655514247757205,-0.14838916723774515,0.019530989384905433,0.55153800426306299,0,0,0,0
2263.5246195,0.44515489237621086,-0.19034429599153771,0.024370609772725566,0.61386926379694884,0,0,0,0
2263.5413245,0.44340371235197623,-0.2326470083483671,0.029729725312678919,0.67621865134926507,0,0,0,0
2263.5583135000002,0.44129840067148041,-0.27537555870393321,0.035608503076960271,0.73859027343834316,0,0,0,0
2263.5745425999999,0.43883510060749781,-0.31860896176229225,0.042007144573183761,0.80098829326260956,0,0,0,0
2263.5908162000001,0.43600929356105067,-0.36242713120496306,0.048925886255856435,0.86341694068465624,0,0,0,0
2263.6066231999998,0.43281579103006407,-0.40691101777346733,0.056365000120193472,0.92588052198468829,0,0,0,0
2263.6232801000001,0.42924872543038367,-0.45214274652138103,0.064324794376099156,0.98838342931584977,0,0,0,0
2263.6394521000002,0.42530153977726687,-0.49820575291696578,0.072805614199517407,1.0509301497785324,0,0,0,0
2263.6560476,0.42096697623845508,-0.54518491738760155,0.081807842557594421,1.113525274012346,0,0,0,0
2263.6723056999999,0.41623706357374463,-0.5931666977906096,0.0913319011031693,1.1761735041825399,0,0,0,0
2263.6882396000001,0.4111031034807468,-0.64223925916936109,0.10137825113298368,1.2388796612118735,0,0,0,0
2263.7048690000001,0.40555565587243053,-0.69249260000621216,0.11194739460264488,1.301648691078702,0,0,0,0
2263.7209032999999,0.39958452311926224,-0.74401867401185473,0.12303987518974929,1.3644856699667454,0,0,0,0
2263.7378890999998,0.39317873329752562,-0.79691150629078766,0.13465627939462899,1.4273958080110314,0,0,0,0
2263.7548542,0.38632652249594884,-0.85126730249114357,0.14679723766587494,1.4903844513370172,0,0,0,0
2263.7712219,0.37901531624538826,-0.90718454927997594,0.15946342553505632,1.5534570820351576,0,0,0,0
2263.7875048999999,0.37123171015130491,-0.96476410417795577,0.1726555647418348,1.6166193156502762,0,0,0,0
2263.8039362999998,0.36392077783603582,-0.77832090952273092,0.18586019704393955,1.5482102504324375,0,0,0,0
2263.8198733999998,0.35816102386820453,-0.5924978755497341,0.19849461196412357,1.479766763804464,0,0,0,0
2263.8362679000002,0.35298333175731306,-0.65419283621201618,0.21107316805545798,1.5430524927049163,0,0,0,0
2263.8525245999999,0.34728693403332844,-0.71708046443367746,0.22417935866174496,1.6064042112660482,0,0,0,0
2263.8685765999999,0.34106144962990315,-0.78127426416331447,0.23781375826701537,1.6698282249424679,0,0,0,0
2263.8854237999999,0.33429554468377409,-0.84688953089341512,0.25197699423816389,1.7333309248534161,0,0,0,0
2263.9020083999999,0.32697691724453526,-0.91404344098112278,0.26666974751857875,1.7969187819408796,0,0,0,0
2263.91833,0.31909228131057205,-0.9828551223491665,0.28189275325770136,1.860598337068184,0,0,0,0
2263.9346695999998,0.31160790451582121,-0.80224039402970948,0.297130899152102,1.7922828460989659,0,0,0,0
2263.9504855,0.30562569457257915,-0.62235604513965204,0.31179966220350508,1.7239463584207377,0,0,0,0
2263.9665272000002,0.30015496862763824,-0.69537900727524971,0.32641514318766418,1.7877690944723175,0,0,0,0
2263.9824383,0.29407092068415053,-0.76965323926795837,0.34156275051431667,1.8516622870739552,0,0,0,0
2263.9986644000001,0.28736261090757725,-0.84531021236536907,0.35724309965069112,1.9156331915680043,0,0,0,0
2264.0148675999999,0.2800179983013617,-0.92248283199766135,0.37345686657245292,1.9796890724070093,0,0,0,0
2264.0306612999998,0.27301837576916038,-0.74656852748881564,0.38968778031887741,1.911464211431088,0,0,0,0
2264.0470516,0.26748169278580747,-0.57139706665766588,0.4053501134662999,1.8432298806364502,0,0,0,0
2264.0632989999999,0.26240414899909775,-0.6524603534755532,0.42096109665532649,1.9074287536735692,0,0,0,0
2264.0794641000002,0.25664665136385539,-0.73468217992546558,0.43710732137302066,1.971693263978187,0,0,0,0
2264.0952008999998,0.25019898460118917,-0.81820628033432385,0.45378936546799375,2.0360313069013078,0,0,0,0
2264.1121423,0.2430497317731615,-0.90317738373736289,0.47100787238330655,2.1004507221232429,0,0,0,0
2264.1298496999998,0.23518626596613812,-0.98974121455155772,0.4887635505855692,2.1649592649370883,0,0,0,0
2264.1461813000001,0.22760313174833186,-0.81974854676100384,0.5065390393262712,2.0969046933042224,0,0,0,0
2264.1626784999999,0.22143300043556033,-0.65064824187556614,0.5237474116463875,2.0288518130846134,0,0,0,0
2264.1789431000002,0.21666910411631354,-0.48226804236629972,0.54038868874714141,1.9608021873091466,0,0,0,0
2264.1948132000002,0.21229306336936068,-0.57385829075675931,0.55698138976276257,2.0254981678272141,0,0,0,0
2264.2106703999998,0.20714999023986186,-0.66644439119632404,0.57411343760529054,2.0902503854974364,0,0,0,0
2264.2281962000002,0.20123096577767358,-0.76018518104899779,0.59178533476816364,2.1550674841247965,0,0,0,0
2264.2442832000002,0.19452574586636825,-0.85523988107089677,0.60999765524725202,2.2199579653132107,0,0,0,0
2264.2603386999999,0.18702275821545911,-0.95176803995228187,0.62875104319713637,2.2849301462672895,0,0,0,0
2264.2767985999999,0.17972977051151878,-0.78851593193831382,0.64752708342413956,2.2170812809821361,0,0,0,0
2264.2930497000002,0.17379343686578694,-0.62619986778103398,0.66573777096697428,2.1492462910299066,0,0,0,0
2264.3092651000002,0.16920666308594126,-0.46463808796683437,0.68338321792578172,2.0814240478296391,0,0,0,0
2264.3255426999999,0.16493964575845613,-0.56592086559034083,0.70098292443418542,2.1465861855150408,0,0,0,0
2264.3417073000001,0.15982498703501999,-0.66816015012602747,0.71912584943234092,2.2118013109160408,0,0,0,0
2264.3577058000001,0.15385404922381002,-0.77152661755043428,0.73781246983811388,2.2770784352950542,0,0,0,0
2264.3743475000001,0.14701677303673122,-0.87619074078247905,0.75704333672588253,2.3424263195522537,0,0,0,0
2264.3903872000001,0.14033043460139888,-0.71886415592469111,0.77629928878968402,2.2747779550892675,0,0,0,0
2264.4067498999998,0.13495146532466865,-0.56244809181952649,0.79499159076040915,2.207151187120965,0,0,0,0
2264.4230004999999,0.12984233007126214,-0.67067823947930627,0.81364034341468727,2.2726524470758607,0,0,0,0
2264.4390592,0.12382706583282781,-0.78001773466532032,0.83283516699776983,2.3382134276464366,0,0,0,0
2264.4549038,0.11689573824680349,-0.89064303970274661,0.85257659368546801,2.4038428973157169,0,0,0,0
2264.4720315,0.11007054651524835,-0.73804323650776993,0.87234504690568082,2.3363741369734732,0,0,0,0
2264.4885846000002,0.10451307465275346,-0.58641992744747862,0.89155137484054292,2.268933964777808,0,0,0,0
2264.5044859999998,0.10021592899437799,-0.43558196111029923,0.91019579907586445,2.2015179402572636,0,0,0,0
2264.5204603000002,0.096137678050067246,-0.55051333290274607,0.92879883847696132,2.2673318265004316,0,0,0,0
2264.5371095,0.091098330104276079,-0.66633129770757404,0.94795050200644693,2.3331921655586685,0,0,0,0
2264.5531606,0.085089777032568883,-0.78321995964817348,0.96765121234472506,2.3991079971777447,0,0,0,0
2264.5699405999999,0.078102380795040185,-0.90136227098482191,0.98790146590430916,2.4650879345763959,0,0,0,0
2264.5863046999998,0.071163176582562562,-0.75509545698769409,1.008181274348432,2.3978716810576906,0,0,0,0
2264.6030922999998,0.065438622385854711,-0.60988030145498062,1.0279010964175299,2.3306926621463595,0,0,0,0
2264.6191672999998,0.06092070505165726,-0.46552397627690922,1.0470612207172467,2.2635451634916937,0,0,0,0
2264.6362352000001,0.056563492690142193,-0.58799804030388636,1.0661825432452015,2.3297146618921807,0,0,0,0
2264.6527087999998,0.051182213717723024,-0.7113887247192362,1.0858554501019322,2.3959297150568521,0,0,0,0
2264.6694351000001,0.044768491060340129,-0.83588481156068117,1.1060803547747806,2.4621989011525796,0,0,0,0
2264.6855953999998,0.038353014725926109,-0.69522150705190244,1.1263369891668491,2.3952140354560951,0,0,0,0
2264.7018208999998,0.03310565865804594,-0.55556694568357801,1.1460355785768364,2.3282695412682983,0,0,0,0
2264.7188265999998,0.029018774613550732,-0.41672657631909898,1.1651764328479404,2.2613584790096457,0,0,0,0
2264.7356530000002,0.025045071942513937,-0.54510657258853112,1.1842806007649327,2.3278001700897142,0,0,0,0
2264.7520946999998,0.019998450137316617,-0.67431079868976418,1.2039385955114237,2.3942807720851338,0,0,0,0
2264.7683026,0.013871287306525232,-0.80453175228062157,1.2241507741320108,2.4608085788469514,0,0,0,0
2264.7841075000001,0.0076960388152860285,-0.66925598125119112,1.2443967283464923,2.3940563029139028,0,0,0,0
2264.8012299000002,0.0026440292732755181,-0.5349851709819512,1.2640865900020513,2.3273478717658262,0,0,0,0
2264.8181189000002,-0.0012923588827821982,-0.40152508269516335,1.2832206946019014,2.2606755248843826,0,0,0,0
2264.8352518000002,-0.0051608710071757505,-0.53539892484346085,1.3023201475786144,2.3273664661046043,0,0,0,0
2264.8521397999998,-0.010147927680971919,-0.67005727798532722,1.3219754885450155,2.3940921528232519,0,0,0,0
2264.8680218999998,-0.016260827706260739,-0.80569459270975763,1.3421870377900083,2.4608603428763565,0,0,0,0
2264.8847722,-0.022466938289950243,-0.67584587332172064,1.3624343615481049,2.394349153220066,0,0,0,0
2264.9011286,-0.027595193770180725,-0.54704299305361737,1.3821276212113727,2.327886678502979,0,0,0,0
2264.9169640999999,-0.031653560042656646,-0.41909374980663727,1.401267190775221,2.2614646353836378,0,0,0,0
2264.9336726000001,-0.034648394269076351,-0.2918042223700813,1.4198533731510676,2.1950742377103141,0,0,0,0
2264.9501967000001,-0.0376254045249374,-0.43149314670004035,1.4384071662095625,2.262023921751803,0,0,0,0
2264.9663377000002,-0.041768724375376501,-0.57178938673715629,1.4575189647536153,2.3289983749564818,0,0,0,0
2264.9828690999998,-0.047084186260160671,-0.71289002846052807,1.4771890044350409,2.3960049781084245,0,0,0,0
2264.9990945999998,-0.052539004463821003,-0.5886743969027729,1.4968968756080299,2.3297516743894455,0,0,0,0
2265.0147820000002,-0.056962489194910704,-0.46539709531728296,1.5160528227124006,2.2635446414580067,0,0,0,0
2265.0316137,-0.060361715872342972,-0.34286742805681331,1.5346571966127835,2.1973749153982474,0,0,0,0
2265.0484139,-0.063781574682810913,-0.48700107568410866,1.5532309092334573,2.2645159715704692,0,0,0,0
2265.0651515999998,-0.068405009269030384,-0.63179993134346324,1.5723642226966557,2.3316817887497558,0,0,0,0
2265.0817000000002,-0.073199649716637991,-0.51155196380083812,1.591536797280291,2.2656147105451385,0,0,0,0
2265.0976836,-0.076995602269409658,-0.39213549366510131,1.6101589847290207,2.1995900007319138,0,0,0,0
2265.1142091000002,-0.079799058117631383,-0.27336144491633252,1.6282311018368314,2.133598316439234,0,0,0,0
2265.1308775000002,-0.082652335077370478,-0.42071074516917095,1.6462738818144513,2.2008764326697468,0,0,0,0
2265.1467017,-0.08673557022115079,-0.56861917384206861,1.6648773838550122,2.2681738819413528,0,0,0,0
2265.1635938999998,-0.092054191878926356,-0.71728308121678486,1.6840417932553153,2.3354967358626264,0,0,0,0
2265.1796218999998,-0.097579019194972888,-0.60162723266839091,1.7032469796033622,2.2696414026964669,0,0,0,0
2265.1964791999999,-0.10214405749072045,-0.48696534886940579,1.7219035807283756,2.2038380257920718,0,0,0,0
2265.2126953000002,-0.10575687131432401,-0.37311335438797294,1.7400119937791563,2.1380773770379959,0,0,0,0
2265.2288067,-0.10842348842293756,-0.25988648936079745,1.7575725378227858,2.0723499401087908,0,0,0,0
2265.2451676000001,-0.11118272303893441,-0.4119017644443892,1.7751056653702251,2.1398196844369042,0,0,0,0
2265.2617906,-0.11521067008143718,-0.56444290176919643,1.7932010984731153,2.2073051569200288,0,0,0,0
2265.2791130999999,-0.11947922161632414,-0.45319858563534976,1.8113388720240491,2.1416656191807335,0,0,0,0
2265.2953035,-0.12282384664420093,-0.34271811230893839,1.828929816228914,2.0760671030065416,0,0,0,0
2265.3110557,-0.12525020017210078,-0.23281956535000028,1.8459742356111524,2.0105000179992301,0,0,0,0
2265.3276814000001,-0.12779430147396911,-0.38749581299918129,1.8629923647398168,2.0780762310882746,0,0,0,0
2265.3441938000001,-0.13162911944824932,-0.54265408243835822,1.8805736763144514,2.1456654223107705,0,0,0,0
2265.3598102999999,-0.13572871518764984,-0.43463556873296977,1.8981983916022906,2.080180952532531,0,0,0,0
2265.3770313,-0.1389311744147689,-0.32735796291105201,1.9152775671633446,2.0147368325689756,0,0,0,0
2265.3930553,-0.14124197308637371,-0.22064246602541274,1.9318115019096711,1.9493234745082049,0,0,0,0
2265.4098110999998,-0.14266509639895025,-0.11431009841551852,1.9478004142631897,1.8839311482909569,0,0,0,0
2265.4262804,-0.14423207090969278,-0.27163445741904746,1.963764218936074,1.9516130000871523,0,0,0,0
2265.4425977000001,-0.14711121976923794,-0.42928465165879476,1.9802920662409791,2.019302608253863,0,0,0,0
2265.4589477999998,-0.15130601656900294,-0.58745437687583402,1.9973840376661116,2.0870041869970843,0,0,0,0
2265.4756708999998,-0.15579433440686863,-0.4833905979755212,2.0145206360303138,2.0217067254590968,0,0,0,0
2265.4923469,-0.1594188272916241,-0.38015957290831376,2.0311132747229186,1.9564551871440994,0,0,0,0
2265.5087677000001,-0.16218575559689036,-0.27758740041405733,2.0471622997814531,1.8912401600622322,0,0,0,0
2265.5250381000001,-0.16409993025666261,-0.17550012184774635,2.0626679782479145,1.8260520960087807,0,0,0,0
2265.5410308,-0.16516471247072576,-0.073723763886758956,2.0776304971973976,1.7608813515954576,0,0,0,0
2265.5574725000001,-0.16640677693758107,-0.23444558245063687,2.092569389325261,1.8286914401331025,0,0,0,0
2265.5737995,-0.16898910977295123,-0.3954369649580578,2.1080733830880458,1.8965066580165351,0,0,0,0
2265.5896484999998,-0.17291470639618928,-0.55688926049008558,2.1241425345974161,1.9643303331585864,0,0,0,0
2265.6062923,-0.17716529598985462,-0.45716600237611565,2.1402576742639057,1.8992434149638018,0,0,0,0
2265.6229109000001,-0.18058809138506116,-0.35824044411696454,2.1558306033393446,1.8342010414823329,0,0,0,0
2265.6396887000001,-0.18318907983916727,-0.25994358026927611,2.1708616567812773,1.7691939123477058,0,0,0,0
2265.6559272,-0.18497284060856958,-0.16210650356148645,2.1853510916294074,1.7042126269334081,0,0,0,0
2265.6718245000002,-0.18594254577130404,-0.064560402367801459,2.1992990862950137,1.6392477155697158,0,0,0,0
2265.6887634,-0.18712022611155271,-0.22834572249011326,2.2132247962548424,1.7071680685762798,0,0,0,0
2265.7055512000002,-0.18966364137253544,-0.39238403813422773,2.2277165212901382,1.7750919888710868,0,0,0,0
2265.7209713000002,-0.19255645004291105,-0.29596469351331522,2.2422553460714791,1.7101742840099836,0,0,0,0
2265.7376814999998,-0.19464792762919689,-0.20006975741160396,2.2562533119475767,1.6452861547668645,0,0,0,0
2265.7537800999999,-0.1959417950718958,-0.10453307773921945,2.2697106289437929,1.5804182629888741,0,0,0,0
2265.7707676999999,-0.19644038922249632,-0.0091886263897400164,2.2826274290771371,1.5155612258981346,0,0,0,0
2265.7867483,-0.19716249507497502,-0.17446176191689605,2.2955226245539913,1.5835341663513829,0,0,0,0
2265.8033872000001,-0.19926247739175607,-0.33992190154721602,2.3089842680236909,1.65150924164125,0,0,0,0
2265.8197642999999,-0.20172571150240856,-0.24543528945471754,2.3224936155834417,1.5866877159416333,0,0,0,0
2265.8367337,-0.20340338363934932,-0.15138721205228656,2.3354628871361403,1.5218910163397743,0,0,0,0
2265.8525859000001,-0.20429850789548556,-0.057613763583776442,2.3478922533885962,1.4571098745895401,0,0,0,0
2265.8692882,-0.20441273300998458,0.036048836947914477,2.3597818076859172,1.3923349935089633,0,0,0,0
2265.8858798000001,-0.20476224361347753,-0.13033734433429514,2.3716502679396689,1.4603462161985739,0,0,0,0
2265.9019880000001,-0.20649870258519282,-0.29685824955802576,2.384085491902475,1.5283586693323539,0,0,0,0
2265.9188165,-0.20860882543461373,-0.20383146225082066,2.3965688713377222,1.4636098115175917,0,0,0,0
2265.9357854,-0.20994527101669888,-0.11117171305889788,2.4085127646694162,1.3988817805111602,0,0,0,0
2265.9527621000002,-0.2105104644851217,-0.018716852589303182,2.4199173095184063,1.3341653719652202,0,0,0,0
2265.9695974000001,-0.21030548023273912,0.073695157138521719,2.4307825667187126,1.2694513629559305,0,0,0,0
2265.9855201,-0.21034447199473078,-0.093502908995200223,2.4416271035543713,1.3374898575011043,0,0,0,0
2266.0014305,-0.21177701251944483,-0.26079322659414544,2.4530386292957784,1.4055290073680025,0,0,0,0
2266.0179174,-0.21359079277173032,-0.16883059120733762,2.4644986377388887,1.3408331781855651,0,0,0,0
2266.0342540000001,-0.21463952581027113,-0.077174328802170594,2.4754195885946468,1.2761547565957114,0,0,0,0
2266.0507551000001,-0.21492513634407598,0.014336407706138667,2.4858015911861431,1.2114845897808029,0,0,0,0
2266.0669524,-0.21444820910081488,0.1058623741867859,2.4956446785081186,1.1468135134553721,0,0,0,0
2266.0830689999998,-0.21422136516831355,-0.061898893315806051,2.5054673058035815,1.2148705287349193,0,0,0,0
2266.0989955999999,-0.21539262444698404,-0.22971674224983962,2.5158570750091944,1.2829278247893872,0,0,0,0
2266.1159886,-0.21695030462324882,-0.13847953105746239,2.5262955506717883,1.2182682591668053,0,0,0,0
2266.1326051999999,-0.21774877532613263,-0.047495741208622128,2.5361952592015329,1.1536231011410576,0,0,0,0
2266.1491943000001,-0.21778952347178956,0.043394589490888751,2.5455562850596167,1.088983234261379,0,0,0,0
2266.1654441000001,-0.21707270328187106,0.13435135529201811,2.5543786367029226,1.0243395357726359,0,0,0,0
2266.1818453000001,-0.21660984102249617,-0.03376021432463179,2.563180691626461,1.0924078080497306,0,0,0,0
2266.1977588,-0.21754787927418032,-0.20189709045437343,2.5725499813380202,1.160476102144532,0,0,0,0
2266.2137803999999,-0.21887542581198352,-0.11108570875440608,2.5819681117935001,1.0958380200790117,0,0,0,0
2266.2298406999998,-0.21944712350841084,-0.020479723873660021,2.5908476434670411,1.0312116150091259,0,0,0,0
2266.2467109999998,-0.21926406103096791,0.07008032979158689,2.5991886381401805,0.96658779055977684,0,0,0,0
2266.2634210000001,-0.21832599839709851,0.16075387441775316,2.6069910817738471,0.90195744813559531,0,0,0,0
2266.2797301000001,-0.21764375781162118,-0.0075171168885120494,2.6147733051512687,0.97003060093095561,0,0,0,0
2266.2956644999999,-0.21836363343773219,-0.1757845015056633,2.6231228032325515,1.0381035729138448,0,0,0,0
2266.3116479999999,-0.21947419013365771,-0.085122478264056708,2.6315211952152717,0.97347337658140631,0,0,0,0
2266.3287835000001,-0.21982996418015502,0.0053798099529098805,2.639381043963664,0.90885225479027754,0,0,0,0
2266.3447120000001,-0.21943166423845109,0.095881702866397731,2.6467023895825479,0.84423111448867083,0,0,0,0
2266.3616109999998,-0.21827867127179817,0.18654252170754526,2.6534851963981265,0.77960086403832551,0,0,0,0
2266.3783085999999,-0.21738146115378992,0.018292977399972404,2.6602477773843325,0.84767290962567521,0,0,0,0
2266.3948469000002,-0.21788607760807163,-0.14992457239783549,2.6675776230878361,0.91574458174392803,0,0,0,0
