Time,Theta,ThetaDot,X,XDot,Out1,Out2,Out3,Out4
172.6143501,-0.45059505117419074,-0.076833939018341429,1.228059175281932e-05,0.0031438921136924002,0,0,0,0
172.6306166,-0.45199578824484654,-0.27152725080096002,0.00030632107321813091,0.07170914246781511,0,0,0,0
172.6478018,-0.45410031709284654,-0.23111169330406589,0.00066064444212983789,0.0094407135428948193,0,0,0,0
172.6637886,-0.45586979064913136,-0.19112865492440129,0.00049615402031076864,-0.05280541724205956,0,0,0,0
172.6797741,-0.45730752341520892,-0.15150407039651728,-0.0001869794459728343,-0.11503309856770821,0,0,0,0
172.6959042,-0.45841621537694394,-0.11216454072346449,-0.0013886170825080702,-0.17724612958141639,0,0,0,0
172.71188839999999,-0.45919795703567778,-0.073037199779730388,-0.0031086515128299257,-0.23944826975838962,0,0,0,0
172.72783910000001,-0.45965423332794386,-0.034049580979420728,-0.0053470065663334208,-0.30164324882063265,0,0,0,0
172.74406579999999,-0.45978592643439087,0.0048705159763975815,-0.0081036370692035755,-0.36383477669368086,0,0,0,0
172.76016440000001,-0.45959331747856391,0.043795158279130449,-0.01137852871841321,-0.42602655348511498,0,0,0,0
172.7771189,-0.45907608711608477,0.082796413137674024,-0.015171698038916541,-0.48822227947149477,0,0,0,0
172.79298610000001,-0.45823331501459003,0.12194648087403206,-0.01948319242406114,-0.55042566508162694,0,0,0,0
172.81003279999999,-0.45706347822457255,0.16131782801426028,-0.024313090259140663,-0.61264044086401281,0,0,0,0
172.82634340000001,-0.4555644484410894,0.20098332039267158,-0.029661501127905197,-0.674870367424937,0,0,0,0
172.84292690000001,-0.4537334881561953,0.2410163562737819,-0.035528566101723093,-0.73711924532090212,0,0,0,0
172.85925219999999,-0.45156724570199969,0.28149099947602807,-0.041914458110937455,-0.79939092488493035,0,0,0,0
172.87484520000001,-0.44906174918448194,0.32248211245335739,-0.048819382397768202,-0.86168931596053522,0,0,0,0
172.8915466,-0.44621239930870188,0.36406548925469479,-0.056243577049864955,-0.92401839750977288,0,0,0,0
172.90794690000001,-0.44301396109687502,0.4063179882361786,-0.064187313613300975,-0.9863822270525443,0,0,0,0
172.92439160000001,-0.43946055450203653,0.44931766434584802,-0.072650897783399254,-1.0487849498830009,0,0,0,0
172.9404783,-0.43554564392177214,0.4931439007338842,-0.081634670171278526,-1.1112308079952602,0,0,0,0
172.95749789999999,-0.43126202661884788,0.53787753936202287,-0.091139007143380801,-1.1737241486343366,0,0,0,0
172.97359019999999,-0.42660182005865505,0.58360101019158006,-0.10116432173046765,-1.2362694323688768,0,0,0,0
172.9907159,-0.42155644817730686,0.6303984584186032,-0.11171106460162424,-1.2988712405595231,0,0,0,0
173.00755359999999,-0.41611662659914556,0.67835586909459933,-0.12277972509765804,-1.361534282070058,0,0,0,0
173.02421870000001,-0.41027234682851588,0.72756118831939331,-0.13437083231688585,-1.4242633990372964,0,0,0,0
173.0400175,-0.40401285944810172,0.77810444001589651,-0.14648495624463223,-1.4870635714794374,0,0,0,0
173.05601279999999,-0.39732665636516401,0.83007783709149863,-0.15912270891576641,-1.5499399204805291,0,0,0,0
173.07259120000001,-0.39020145215787466,0.88357588555366462,-0.17228474559723281,-1.6128977096400663,0,0,0,0
173.08894430000001,-0.38262416458692433,0.93869547987398372,-0.18597176597472614,-1.675942344420736,0,0,0,0
173.1050932,-0.37458089435298869,0.99553598758091666,-0.20018451532435882,-1.73907936896301,0,0,0,0
173.1208742,-0.36701480893540306,0.80876833881134125,-0.21440966752699073,-1.6706748313585826,0,0,0,0
173.13755689999999,-0.36100253603384264,0.62263903047913194,-0.22806463065066446,-1.6022335363404661,0,0,0,0
173.15398709999999,-0.35557596714958517,0.68375510056733679,-0.24166365567927359,-1.6654973771852251,0,0,0,0
173.17050710000001,-0.3496353022486981,0.7461185581635863,-0.25579014403565453,-1.7288300668695009,0,0,0,0
173.18716889999999,-0.34316970834808569,0.80984187678335962,-0.27044469378398256,-1.7922378485415955,0,0,0,0
173.2034543,-0.33616740793516098,0.87503940238334388,-0.28562795536778485,-1.8557270548886329,0,0,0,0
173.2196759,-0.32861566302392275,0.94182743735886754,-0.30134063233247321,-1.9193041014083645,0,0,0,0
173.23574429999999,-0.32050075858361243,1.0103243053793971,-0.31758348197594816,-1.982975475497456,0,0,0,0
173.25236269999999,-0.31278803441347225,0.82956939274108021,-0.33384145212821109,-1.9146635325726544,0,0,0,0
173.2682341,-0.30657855953226809,0.64956704250530006,-0.34953006422921451,-1.8463294203701002,0,0,0,0
173.2840707,-0.30088178194960591,0.72241783313935704,-0.36516538635882317,-1.9101481011860899,0,0,0,0
173.3008088,-0.29457292497793452,0.79656900611499803,-0.38133281150773624,-1.97403991167118,0,0,0,0
173.3170752,-0.28764064118424776,0.87215161322816959,-0.39803297725733006,-2.0380120656169725,0,0,0,0
173.33340889999999,-0.28007248528715528,0.94929818572203584,-0.4152665813468342,-2.1020717845690395,0,0,0,0
173.3491391,-0.27185490170151322,1.0281427613119563,-0.4330343816587196,-2.1662262764005598,0,0,0,0
173.36578,-0.2639704552599329,0.85335667904565493,-0.45081995851694551,-2.0980492479981319,0,0,0,0
173.38275110000001,-0.25753907802487958,0.67943361282344039,-0.46803735616235864,-2.0298635007381218,0,0,0,0
173.39878210000001,-0.25155272230901182,0.7627083833161894,-0.48520407910204244,-2.0941818787903501,0,0,0,0
173.41540649999999,-0.24486723986044265,0.84733251151745492,-0.50290708027068087,-2.1585763409486507,0,0,0,0
173.4319405,-0.23747081662475827,0.93345193613178856,-0.52114702442679661,-2.2230547375139804,0,0,0,0
173.44869320000001,-0.22935041866374176,1.0212135438840633,-0.53992464137081297,-2.2876248157497394,0,0,0,0
173.46560070000001,-0.22150183462764572,0.8520430683680118,-0.55872245583350932,-2.2195994127488525,0,0,0,0
173.48165599999999,-0.21505922539378447,0.68381011222344112,-0.57695340327260214,-2.1515773017272664,0,0,0,0
173.49865370000001,-0.21001544760343757,0.51634216347047124,-0.59461751775567684,-2.0835599163839613,0,0,0,0
173.5144755,-0.20534999585381986,0.60934036455835094,-0.61223347425899921,-2.1483266939916468,0,0,0,0
173.53155279999999,-0.19990555198069673,0.7033927473150452,-0.63038937966053554,-2.2131528066877397,0,0,0,0
173.54737700000001,-0.19367270511252233,0.79865963261346506,-0.64908576227289749,-2.278046894739199,0,0,0,0
173.5646198,-0.18664070714086783,0.89530164553524472,-0.66832322177989989,-2.3430174292177419,0,0,0,0
173.58041829999999,-0.17879747047536215,0.99347963286845298,-0.68810242764597085,-2.4080726640444294,0,0,0,0
173.5971088,-0.17115208979704177,0.83146674347225724,-0.70790483704899076,-2.3402707689690092,0,0,0,0
173.61378719999999,-0.16485278591873259,0.67045401596487952,-0.72714229604381142,-2.2724855056007822,0,0,0,0
173.62991740000001,-0.1598919304501957,0.5102596232979405,-0.74581493912236663,-2.2047155878168376,0,0,0,0
173.6468567,-0.15523728304573076,0.61346286104638348,-0.76444244485635371,-2.2699730371502915,0,0,0,0
173.6627909,-0.1497186993151097,0.71769741212503824,-0.78361397787318532,-2.3352871823057195,0,0,0,0
173.67879009999999,-0.14332691205513584,0.82313549347050363,-0.80333004568597033,-2.400666948427411,0,0,0,0
173.69572410000001,-0.13605122026984989,0.92994894652950044,-0.8235912290622911,-2.4661209615479316,0,0,0,0
173.71246679999999,-0.12891016321539533,0.7743613108347166,-0.8438782371773963,-2.3985417684535149,0,0,0,0
173.7292501,-0.12306164931791073,0.61976995095072684,-0.86360218744115957,-2.3309881924319966,0,0,0,0
173.7459107,-0.11849810969041893,0.46598628053702423,-0.88276328042065499,-2.2634567313619942,0,0,0,0
173.76245560000001,-0.11418036475995899,0.57737589919315269,-0.90188182079111068,-2.3291034586397776,0,0,0,0
173.7790363,-0.10893081390429028,0.68970871928678146,-0.92154760727370122,-2.3948004679892292,0,0,0,0
173.79505760000001,-0.10274089061445546,0.80316546162617586,-0.94176109439644295,-2.4605567881153068,0,0,0,0
173.81106539999999,-0.095600525837095454,0.91792591346514529,-0.96252281045021337,-2.5263810542198817,0,0,0,0
173.82802119999999,-0.088534515683885567,0.76878464561110271,-0.9833129481191808,-2.459049837162171,0,0,0,0
173.84360820000001,-0.082707129815515479,0.62069001078007291,-1.0035421292541087,-2.3917528705745652,0,0,0,0
173.86080659999999,-0.078110392578448498,0.4734502405293734,-1.0232106201708686,-2.3244850877889744,0,0,0,0
173.87680940000001,-0.07369986280306548,0.5926681626656507,-1.0428391799811614,-2.390502533633093,0,0,0,0
173.89304369999999,-0.068292316396615121,0.71282394666778537,-1.0630180654548358,-2.4565677195766122,0,0,0,0
173.90954239999999,-0.061879207799732765,0.83410423440228354,-1.0837477088924732,-2.5226893857928072,0,0,0,0
173.92590569999999,-0.055489985954195922,0.69051361028852143,-1.1045079502806752,-2.4555809298178692,0,0,0,0
173.94164409999999,-0.050293383046267119,0.54790502396549545,-1.1247091038267312,-2.3885096155651122,0,0,0,0
173.9585313,-0.04628197354293849,0.40608384266954234,-1.1443514542388538,-2.3214689520455551,0,0,0,0
173.97464350000001,-0.042409479463589576,0.53125770628142321,-1.1639559644920698,-2.3877627356288174,0,0,0,0
173.9903812,-0.037490813027210641,0.65724812597489601,-1.1841130722277706,-2.4540963032998779,0,0,0,0
174.00646929999999,-0.031518421424089317,0.78424633633820839,-1.2048231429419092,-2.5204782602482934,0,0,0,0
174.02306809999999,-0.024483165391976879,0.91244165186144899,-1.2260866117128169,-2.5869166436167452,0,0,0,0
174.0389983,-0.017415793830190845,0.7753669878316698,-1.2473831617325994,-2.5200871197504013,0,0,0,0
174.05499219999999,-0.01148608906886614,0.63944178033229493,-1.2681229932923501,-2.4533061370749034,0,0,0,0
174.07181750000001,-0.0066852216366382663,0.5044736766011908,-1.2883064837439402,-2.3865666033950603,0,0,0,0
174.0880823,-0.0030059756964083192,0.37026770322813496,-1.3079339484727894,-2.3198607231264901,0,0,0,0
174.1038034,0.00059898792064447108,0.50334772362702707,-1.3275264730766816,-2.3865159540382823,0,0,0,0
174.12031730000001,0.0053157088718942518,0.63716826590799691,-1.3476745819107954,-2.4532043849261838,0,0,0,0
174.13717819999999,0.011151120759458275,0.77192416737890812,-1.3683785832129756,-2.5199339940575212,0,0,0,0
174.15358670000001,0.01707212566291064,0.64112178737548986,-1.3891180235302294,-2.4533803101469314,0,0,0,0
174.16987660000001,0.021907102349008938,0.51130721419726288,-1.4093030335614602,-2.386872241828851,0,0,0,0
174.18621289999999,0.025663528949017952,0.38228718810801693,-1.4289339613044869,-2.3204014658335295,0,0,0,0
174.2024499,0.02938857762120349,0.52046759858435365,-1.4485318814176402,-2.387284009762658,0,0,0,0
174.21904090000001,0.03426789202419489,0.65938998683070271,-1.4686872714122021,-2.4541974250881462,0,0,0,0
174.23504270000001,0.040308420386314617,0.79924974537578164,-1.4894004173415096,-2.5211489616043052,0,0,0,0
174.25070629999999,0.046478103838573689,0.67382809689917789,-1.5101509272570128,-2.4548382952833676,0,0,0,0
174.26788049999999,0.051606902135976365,0.54947254070280172,-1.530349056566854,-2.3885794683284649,0,0,0,0
174.2838448,0.055702958440722525,0.42599310898234577,-1.5499952039406051,-2.3223638600111238,0,0,0,0
174.29973469999999,0.058772827036953003,0.30319841684149557,-1.5690896943837827,-2.2561824030466382,0,0,0,0
174.3168804,0.061861000137027167,0.44703812081648031,-1.5881534245467503,-2.3233116416502728,0,0,0,0
174.3327505,0.066150087951255404,0.59148900172222185,-1.6077766499145416,-2.390463842635004,0,0,0,0
174.34928410000001,0.071645953490124939,0.73674766862078644,-1.6279595882307569,-2.4576456432967775,0,0,0,0
174.3654233,0.077317724520481287,0.61718689144393879,-1.6481819666553317,-2.3916069918202014,0,0,0,0
174.3819355,0.081997204677153435,0.498629625440904,-1.6678542290395573,-2.3256195168776532,0,0,0,0
174.3995524,0.08569202681107084,0.38088886619382595,-1.6869767666315612,-2.2596741332419921,0,0,0,0
174.41607809999999,0.088408261577837252,0.26377668096993429,-1.7055498935854243,-2.1937614178186866,0,0,0,0
174.43255199999999,0.091187208376649703,0.41254190079934383,-1.7240942641369259,-2.2610985609340108,0,0,0,0
174.4490845,0.095207844943375516,0.56184885693545394,-1.7431998436736116,-2.3284537191551875,0,0,0,0
174.46513970000001,0.10047545353719145,0.71189360014025072,-1.7628668054878283,-2.3958327013452041,0,0,0,0
174.48163869999999,0.10596173317083425,0.59786697856269611,-1.7825750914743685,-2.3300542357834675,0,0,0,0
174.49782780000001,0.1105017995464926,0.4848342685276632,-1.8017354346494854,-2.264328192038386,0,0,0,0
174.51384619999999,0.11410322210983476,0.37261278041056822,-1.8203482359014216,-2.1986453097619734,0,0,0,0
174.5308302,0.11677204544225425,0.26101923276761568,-1.8384138178421541,-2.1329960584674654,0,0,0,0
174.54756520000001,0.11954593632089462,0.4143694865001607,-1.8564525384077015,-2.2005191027797721,0,0,0,0
174.5634823,0.12359965243023432,0.56824240031709583,-1.875054005490048,-2.2680569968345332,0,0,0,0
174.580004,0.12790631898002044,0.45865215242016982,-1.893698351053003,-2.2024961473568796,0,0,0,0
174.59648490000001,0.13130289404182682,0.34983913332166633,-1.911796526958212,-2.1369773344805809,0,0,0,0
174.61337560000001,0.13379515087971575,0.24162315534856083,-1.9293488462707216,-2.0714909908865358,0,0,0,0
174.62998780000001,0.13641785696062728,0.39764246610074228,-1.9468754370568984,-2.1391192320777774,0,0,0,0
174.64610740000001,0.14034249784146202,0.55415025964643605,-1.964965641600098,-2.206759805883598,0,0,0,0
174.662442,0.14454467584640474,0.44787212500027601,-1.9830997989141617,-2.1413581049880008,0,0,0,0
174.67893720000001,0.14786432219404405,0.34236128530635923,-2.0006891128169397,-2.0759984464715178,0,0,0,0
174.69474389999999,0.1503071406003102,0.23744096660409791,-2.0177338965427563,-2.0106712993718725,0,0,0,0
174.7117236,0.15187736111704431,0.1329342676998562,-2.0342343833331697,-1.9453669957295854,0,0,0,0
174.7288643,0.15360507889137642,0.29168094633313829,-2.0507103625299359,-2.0131023867057225,0,0,0,0
174.7455449,0.15665690159815598,0.45077317478506673,-2.0677508300126601,-2.0808453249134802,0,0,0,0
174.7611402,0.161036461714889,0.6104032272571982,-2.0853558637122558,-2.1485995515982346,0,0,0,0
174.7777888,0.16572369070879225,0.50831130790645473,-2.1030061184398936,-2.0833951713614951,0,0,0,0
174.79400939999999,0.16956370988933522,0.40709943322627956,-2.1201132002593592,-2.0182395706601426,0,0,0,0
174.81027689999999,0.17256318372630361,0.30659627786217375,-2.1366774794240975,-1.953123444486583,0,0,0,0
174.827439,0.17472734901416842,0.2066305327265712,-2.1526992481051468,-1.8880373565412416,0,0,0,0
174.84380400000001,0.17606001512965563,0.10703093177549702,-2.168178719447142,-1.8229717767343161,0,0,0,0
174.86050270000001,0.17758600998657284,0.26939020215319542,-2.1836352609221574,-1.8908405580746737,0,0,0,0
174.876541,0.18046606105993301,0.43205515120413018,-2.1996573931486321,-1.9587143661278925,0,0,0,0
174.89339949999999,0.18368218662141697,0.3337845735287443,-2.2157260440132025,-1.8937050097232384,0,0,0,0
174.9103049,0.1860818019003079,0.23610145467707083,-2.2312530855925488,-1.8287286461588406,0,0,0,0
174.9267643,0.18766914500503085,0.13883752479090056,-2.2462387561716151,-1.7637758785578141,0,0,0,0
174.94307559999999,0.1884470522114749,0.041824616900695034,-2.2606832154745065,-1.6988372499860973,0,0,0,0
174.9600633,0.18943666105717755,0.2059618948690754,-2.2751055550492403,-1.7667703595775286,0,0,0,0
174.97579640000001,0.19179483277919557,0.3703252485329378,-2.2900940140312538,-1.8347065182060223,0,0,0,0
174.99261910000001,0.19450548910561258,0.27432704712845885,-2.3051297118709928,-1.7698102879811139,0,0,0,0
175.00929840000001,0.19641817863083208,0.17881614458514464,-2.3196247216923003,-1.7049415679817534,0,0,0,0
175.0258523,0.19753631465297319,0.083626799319276204,-2.3335792363206118,-1.6400910242026721,0,0,0,0
175.04276200000001,0.19786192978840486,-0.011406610643894295,-2.3469933706316888,-1.575249283996514,0,0,0,0
175.0586295,0.19841317778818637,0.15405924099457446,-2.360385993537407,-1.643229066053959,0,0,0,0
175.07543749999999,0.20034381587900782,0.3196884421690166,-2.374345120153619,-1.7112106448585687,0,0,0,0
175.09140909999999,0.2036559379396598,0.48566821748073352,-2.3888707734257992,-1.7791959866789597,0,0,0,0
175.1072168,0.20733746888960197,0.39218554651840576,-2.403444325339223,-1.7144149462439953,0,0,0,0
175.1237328,0.21024280895601302,0.29939908091433648,-2.4174781953752706,-1.6496732987587828,0,0,0,0
175.13988180000001,0.21237712874568512,0.20714730725026723,-2.4309726764431487,-1.5849619795402166,0,0,0,0
175.1568326,0.21374425394763361,0.11526896591376939,-2.4439279856936023,-1.5202718713122463,0,0,0,0
175.17441350000001,0.21434666722523346,0.02360299143503276,-2.4563442641555193,-1.4555938228325698,0,0,0,0
175.1907741,0.2141855095606417,-0.068011559165688393,-2.4682215765172217,-1.3909186650226735,0,0,0,0
175.20720969999999,0.21427399780282377,0.099733757611210117,-2.480078411341732,-1.4589752088363706,0,0,0,0
175.2233809,0.21576061989490794,0.26757750618516324,-2.4925023854077279,-1.5270323514162447,0,0,0,0
175.23936900000001,0.21763416720025314,0.17644445937660352,-2.504975077704755,-1.4623765923333154,0,0,0,0
175.25573890000001,0.21874963391745331,0.085631662277591197,-2.516909049440383,-1.3977390473303617,0,0,0,0
175.27217039999999,0.21910906503906147,-0.0050205404084068634,-2.5283044168958169,-1.3331106244387358,0,0,0,0
175.28874999999999,0.21871317556491332,-0.095671699100708218,-2.5391612205311804,-1.2684822200534869,0,0,0,0
175.30551249999999,0.21857358950069303,0.072689557722685358,-2.5499978302225181,-1.3365588418745082,0,0,0,0
175.3215467,0.21983715142591931,0.2411187301597561,-2.5614017453735705,-1.4046357439785193,0,0,0,0
175.33760670000001,0.22149346627713618,0.15081155848045949,-2.572854628025667,-1.3400210265645709,0,0,0,0
175.3551459,0.22239840758231497,0.060779960065936826,-2.5837691222186439,-1.2754219936053917,0,0,0,0
175.37075490000001,0.22255365215200873,-0.029134668148523123,-2.594145323331186,-1.2108295995076075,0,0,0,0
175.3880192,0.22195955550043697,-0.11909084386540621,-2.6039832513251673,-1.1462347913665258,0,0,0,0
175.40428639999999,0.22162653418920805,0.049707366305011991,-2.6138011871758624,-1.2143254024549333,0,0,0,0
175.4202678,0.22270020290035961,0.21854798862454358,-2.6241865443719377,-1.2824160896103036,0,0,0,0
175.43622350000001,0.22417071211850451,0.12881860268672449,-2.6346210438534139,-1.2178301528932347,0,0,0,0
175.4520297,0.22489451168273555,0.039326268260125197,-2.6445173861441478,-1.1532577120410437,0,0,0,0
175.46847500000001,0.22487296026704715,-0.050086884110764264,-2.6538756485112809,-1.0886897545371426,0,0,0,0
175.4842439,0.22410610128742078,-0.13957865841579958,-2.6626958330937671,-1.0241172637263229,0,0,0,0
175.50126739999999,0.22360347610071143,0.029504410127790856,-2.6714961578882028,-1.092216821850023,0,0,0,0
175.51770880000001,0.22450982850306164,0.19860774530469361,-2.6808639781207124,-1.160316318790183,0,0,0,0
175.53417590000001,0.22581560389426567,0.1092395486165879,-2.6902810516227209,-1.0957484935839517,0,0,0,0
175.55056149999999,0.2263775447482643,0.020073976619659799,-2.6991601111910248,-1.0311922034289451,0,0,0,0
175.56686819999999,0.22619672459901941,-0.06904639539377519,-2.7075012178285376,-0.96663845572614771,0,0,0,0
175.58347710000001,0.22527290535316094,-0.1582789463983019,-2.715304357586088,-0.90207825623879867,0,0,0,0
175.5991099,0.22461504475128338,0.01095424916429736,-2.7230877085145715,-0.97018237432156051,0,0,0,0
175.61590150000001,0.2253673341062431,0.18018753234502111,-2.7314385925176912,-1.0382863288530568,0,0,0,0
175.6321768,0.22652027214317341,0.090983710123315673,-2.7398387837071523,-0.97372695107468776,0,0,0,0
175.6477951,0.22693061955357835,0.0019503208202161096,-2.7477010241789617,-0.90917727150546868,0,0,0,0
175.6649481,0.22659918230254844,-0.087069885496105809,-2.7550253596546375,-0.84462830450914284,0,0,0,0
175.6821453,0.22552545610856006,-0.17623413256531359,-2.7618117609702573,-0.78007106498581991,0,0,0,0
175.6988561,0.22471807817719275,-0.0069764169067466734,-2.7685783873398213,-0.84817568882117111,0,0,0,0
