Time,Theta,ThetaDot,X,XDot,Out1,Out2,Out3,Out4
1845.1183083000001,0.26198002330741949,0.046247699731803905,-7.9307714284269517e-06,-0.0020304463600727169,0,0,0,0
1845.1345458999999,0.26204651014899888,-0.03539010322209013,0.00022589264444438628,0.062159783457080543,0,0,0,0
1845.1503408999999,0.26143257083423171,-0.11708225543436962,0.00099464116651511061,0.1263531677980638,0,0,0,0
1845.1673593999999,0.26013718104804229,-0.19897505416231254,0.0022983738211146501,0.19055808729047988,0,0,0,0
1845.1840502,0.25815809677494261,-0.28121496236667637,0.0041372194604825507,0.25478291894214306,0,0,0,0
1845.201043,0.25549185241316696,-0.36394873687547358,0.0065113767227343543,0.31903603338046416,0,0,0,0
1845.2173717999999,0.252133757849831,-0.44732354848304778,0.0094211139627242806,0.38332579039886516,0,0,0,0
1845.2334105,0.24807789457838111,-0.53148709034834385,0.012866769136744186,0.44766053204712142,0,0,0,0
1845.2493789,0.24432136194098658,-0.35940436167848333,0.016330972935077376,0.37948740235552259,0,0,0,0
1845.2653752000001,0.24199722016428366,-0.18770810840802932,0.019227064872041857,0.31131379292291878,0,0,0,0
1845.2822858,0.24009717091984303,-0.27374765759413872,0.022072926412923983,0.3757223181028353,0,0,0,0
1845.2994432,0.23747836887409912,-0.36026391209923586,0.025455626225476719,0.44015812386087688,0,0,0,0
1845.3153941999999,0.23413624486243939,-0.44740967299164286,0.029375425512909861,0.50462987449429075,0,0,0,0
1845.3324729000001,0.23006495480830694,-0.53533815768378212,0.03383265755155352,0.56914619886577589,0,0,0,0
1845.3493251,0.22626684913007816,-0.36568647112996888,0.038309527222135834,0.50104658572323757,0,0,0,0
1845.3658432,0.22388079313807657,-0.19644171572616059,0.042218906910913727,0.43294868300445055,0,0,0,0
1845.3823500999999,0.22189318562421714,-0.28626717769084553,0.046079111585337597,0.49754142728649581,0,0,0,0
1845.3994828,0.21915520986036557,-0.37658723885615686,0.050477693174660429,0.56216239152742764,0,0,0,0
1845.4158586999999,0.21566212664193837,-0.46756004242328258,0.055414921734494887,0.6268204988111109,0,0,0,0
1845.4322288999999,0.21140787768730829,-0.55934405289633382,0.060891141467145561,0.69152461445130409,0,0,0,0
1845.4481546,0.2073995800408989,-0.39229702312243914,0.066388160533255122,0.62350981957612217,0,0,0,0
1845.4640171999999,0.20478145222035582,-0.22570099505840741,0.07131840688842174,0.55549924748607538,0,0,0,0
1845.4805298000001,0.20253451493303737,-0.3195040026397194,0.076200624066489503,0.62028647230903344,0,0,0,0
1845.4963557000001,0.1995038597206874,-0.41385463446611226,0.081622849792745616,0.6851047631148226,0,0,0,0
1845.5131137999999,0.19568428490060219,-0.50891629160878893,0.087585378682404944,0.7499632537388875,0,0,0,0
1845.5291583000001,0.19106922630593401,-0.6048525852526152,0.094088581133366017,0.81487098798817958,0,0,0,0
1845.5448431,0.18667027140658471,-0.44074206479685341,0.10061388191521467,0.74695805494866807,0,0,0,0
1845.5616628,0.18363672940291059,-0.27715527763682152,0.10657327258158145,0.67905270807655771,0,0,0,0
1845.5780047000001,0.18196496797055636,-0.1139042904612993,0.11196680775938157,0.61115263084691007,0,0,0,0
1845.5945188999999,0.18063165030185513,-0.21228579903927236,0.11731366688846383,0.67615900038226617,0,0,0,0
1845.6107116000001,0.17847721379485657,-0.31102322250388054,0.12320231758631005,0.74118544008527543,0,0,0,0
1845.6271372000001,0.17549802971102976,-0.41028623982986101,0.12963296415884873,0.80624142314984237,0,0,0,0
1845.6433364,0.17168905516236105,-0.51024457020776115,0.13660588953428032,0.87133633490607232,0,0,0,0
1845.6604956000001,0.1670438328096126,-0.61106796029090182,0.14412145439964677,0.93647943835363245,0,0,0,0
1845.6775864000001,0.16257926430951636,-0.4505012011593168,0.15166064563643378,0.86869182815126156,0,0,0,0
1845.6946608000001,0.15945044613769621,-0.29049116217153459,0.15863498574305876,0.80091535165931305,0,0,0,0
1845.7106696000001,0.15765348430435944,-0.13084654149753772,0.16504455457988923,0.73314658652808973,0,0,0,0
1845.7266271999999,0.15615971202998924,-0.234166048168478,0.17140896734564973,0.79839316284644379,0,0,0,0
1845.7434274,0.15380355123176803,-0.33787315790360939,0.17831717911209249,0.86366130351298287,0,0,0,0
1845.7603869,0.15058108621044367,-0.44214338716526985,0.18576940732189764,0.92896065152000595,0,0,0,0
1845.7771001999999,0.14648693904695806,-0.54715213565440135,0.19376594931624849,0.99430072438246697,0,0,0,0
1845.7927976000001,0.14254295520386309,-0.38965949143156148,0.2017874123852072,0.92662290256329127,0,0,0,0
1845.8097964999999,0.13990932861918481,-0.23266546106946479,0.20924494389253814,0.85895721337853859,0,0,0,0
1845.8267714999999,0.13755297560640534,-0.33962214713437094,0.21665846981317927,0.92438237001138657,0,0,0,0
1845.8427167,0.13430325350741817,-0.44713876147577447,0.22461731854419492,0.98983820981675996,0,0,0,0
1845.8596373,0.13015479718105202,-0.55539421764330632,0.23312178332178357,1.0553343131927406,0,0,0,0
1845.8762931000001,0.12613221005542466,-0.40044564881757927,0.24165223991411011,0.98775430233719763,0,0,0,0
1845.8928579000001,0.12339867687248972,-0.24602171143633547,0.24961958933503398,0.92018869072646181,0,0,0,0
1845.9095064999999,0.12091821331479942,-0.35626079545016037,0.2575439961114489,0.98577231898913387,0,0,0,0
1845.9260445,0.11751694748940972,-0.46708083053759325,0.26601504906161721,1.0513873412077204,0,0,0,0
1845.9423807000001,0.11318932651571131,-0.57866391527156413,0.27503304735995088,1.1170433354241032,0,0,0,0
1845.9581737000001,0.10896228094190917,-0.42642308087097835,0.28407816342522874,1.0495708164772517,0,0,0,0
1845.9741256,0.10600154101094504,-0.27475375979759004,0.29256108017378174,0.98211568925194026,0,0,0,0
1845.9908766000001,0.10430311235891647,-0.12345888783787839,0.30048192069292501,0.91467226713393401,0,0,0,0
1846.0070533999999,0.1028296317905632,-0.23734136566607569,0.30836103844041696,0.9804282664060362,0,0,0,0
1846.0236049,0.10040578313006292,-0.35160182291495329,0.31678819469526631,1.0462044020032892,0,0,0,0
1846.0404607,0.097027688338607573,-0.46642660785369122,0.32576359552833584,1.1120104409815581,0,0,0,0
1846.0565827999999,0.092689918332254803,-0.58200155932191167,0.33528752765968306,1.1778559473130708,0,0,0,0
1846.0731384000001,0.088422083064034387,-0.43308710888726765,0.34483993853967937,1.1105178787045071,0,0,0,0
1846.0896382999999,0.0853927351740114,-0.28476915472860392,0.3538312817480771,1.0431999499626949,0,0,0,0
1846.1062294999999,0.083597676498492535,-0.13684952978294107,0.36226170053231038,0.97589577631431101,0,0,0,0
1846.1227153,0.081996930921242911,-0.25474868056304689,0.37065176327476879,1.0418436634485861,0,0,0,0
1846.1392596999999,0.079412262748611198,-0.37304745767718195,0.37959146619606815,1.1078123407125848,0,0,0,0
1846.1556275999999,0.075839600592668324,-0.49193549664816877,0.38908102047705934,1.17381148179983,0,0,0,0
1846.1730156000001,0.07127329537130099,-0.61160172125331946,0.39912071700402846,1.2398505124550048,0,0,0,0
1846.1888696000001,0.066744864763583961,-0.46626376642744932,0.40919032926605875,1.1726617164948454,0,0,0,0
1846.2053868,0.063424872888902875,-0.3215848553355613,0.41870013451090643,1.1054972361728195,0,0,0,0
1846.2217562000001,0.061308601399895142,-0.17736655341994476,0.42765030849276131,1.0383500981707021,0,0,0,0
1846.2382339999999,0.05935354368889454,-0.29954420075346505,0.43656161441468699,1.1045008197584094,0,0,0,0
1846.2545187000001,0.056378664939818593,-0.42218452742365997,0.44602426086334751,1.1706748707074923,0,0,0,0
1846.2701906,0.052379357373434965,-0.54547992387514055,0.45603847929932673,1.2368816875693867,0,0,0,0
1846.2862623000001,0.04838955711339931,-0.40329937229857082,0.46608386999714918,1.1698255139784517,0,0,0,0
1846.3036337000001,0.045582173681612277,-0.2617034652444209,0.47557055459923903,1.1027924351448464,0,0,0,0
1846.3200328999999,0.043953112809911037,-0.12049280573347415,0.48449869598091011,1.0357748045638075,0,0,0,0
1846.3357350000001,0.042459376988613393,-0.24588639003590726,0.49338913146717184,1.1020757676210731,0,0,0,0
1846.3525677,0.03991937761030958,-0.37165170467776942,0.50283213983210007,1.1683950136932972,0,0,0,0
1846.3692916,0.036329255256221632,-0.49798358622857491,0.51282791021578478,1.2347419141145719,0,0,0,0
1846.3854672,0.032724526841874248,-0.3585406417889701,0.52285593120895613,1.1678038055407878,0,0,0,0
1846.402053,0.030279612540066551,-0.21962832861576914,0.53232622620009573,1.1008877312922722,0,0,0,0
1846.4185938000001,0.028990869532746179,-0.081046963597890112,0.54123894728741262,1.033985561366187,0,0,0,0
1846.4345518,0.027815081334566047,-0.20918598324657528,0.55011497260893216,1.1004139810535509,0,0,0,0
1846.4506335999999,0.025570393683815223,-0.33763490199034529,0.55954461969844305,1.1668572700347855,0,0,0,0
1846.4676234000001,0.022253455599888387,-0.46659030447226496,0.56952804878369423,1.2333246829716771,0,0,0,0
1846.4842067,0.018900766236733778,-0.32959160949125771,0.57954467950774202,1.1664940177396195,0,0,0,0
1846.5008402999999,0.016687656544094528,-0.19308917117572977,0.58900447745493312,1.0996847719439111,0,0,0,0
1846.5173460999999,0.015610769718791781,-0.056883456764542838,0.59790758816281742,1.0328884564985634,0,0,0,0
1846.5336659,0.014626805370591755,-0.18745768002151209,0.60677491075157064,1.099429107340494,0,0,0,0
1846.5501624000001,0.012553794524915417,-0.31830456905144267,0.61619678223149721,1.1659825163522362,0,0,0,0
1846.5669183,0.00938869153539546,-0.44962197205333715,0.62617334462356911,1.2325577817656759,0,0,0,0
1846.5832405000001,0.0061685232438072725,-0.31489426679189525,0.63618397994704767,1.1658283784393897,0,0,0,0
1846.5994701,0.0040690693616128575,-0.18064761734949705,0.64563862659542748,1.0991204075303436,0,0,0,0
1846.6159748,0.0030870980247238375,-0.046682958730750353,0.65453742911474466,1.0324251036773966,0,0,0,0
1846.6324282999999,0.0021792856428413986,-0.1795205034078535,0.66340129526367864,1.0990692245027613,0,0,0,0
1846.6488059000001,0.00016362716780793612,-0.31261515607680695,0.67282056861781647,1.1657250618437947,0,0,0,0
1846.6644515999999,-0.00296279698679162,-0.44616567538798269,0.68279538176003429,1.2324015188138553,0,0,0,0
1846.6815649,-0.0061628112755389274,-0.3136526464350502,0.69280510427486897,1.1657719572366909,0,0,0,0
1846.6983557000001,-0.0082605823976884402,-0.18162479417878752,0.70225967336283313,1.0991646156953176,0,0,0,0
1846.7151021,-0.0092593794341079873,-0.049883803285771078,0.7111592392673497,1.032570509646664,0,0,0,0
1846.730855,-0.010202519873967121,-0.1849375965227617,0.72002470938217389,1.0993150424461926,0,0,0,0
1846.7466562,-0.012271992197677051,-0.32025298128353785,0.72944642309282759,1.1660711542905962,0,0,0,0
1846.762504,-0.015470755850848903,-0.45602933845022292,0.73942451090370631,1.2328475059160913,0,0,0,0
1846.7792251000001,-0.018761844463309977,-0.32579309252646355,0.74943835314679319,1.1663214756162186,0,0,0,0
1846.7946976999999,-0.020969757872767166,-0.19606646945239781,0.75889791155634367,1.0998193830289154,0,0,0,0
1846.8113384999999,-0.022097973003443416,-0.066652215853344993,0.76780335000007971,1.0333320674222277,0,0,0,0
1846.8268163,-0.023189768812826202,-0.20399337030666159,0.77667556652902692,1.1001791643108982,0,0,0,0
1846.8435297000001,-0.025427051055354085,-0.34162005020470643,0.78610488405467893,1.1670384799886488,0,0,0,0
1846.8604685,-0.028812980051547359,-0.47973197274118823,0.79609143723304698,1.2339183666658884,0,0,0,0
1846.8760675999999,-0.032311185926510319,-0.35196029465265977,0.80611464206436501,1.1675051716451803,0,0,0,0
1846.8931835999999,-0.034746936687432138,-0.22474509637008375,0.81558451456171599,1.1011187591924319,0,0,0,0
1846.9090690999999,-0.03612410546193575,-0.097890591967285723,0.82450124176820827,1.034749831085378,0,0,0,0
1846.9258835000001,-0.037485861830871353,-0.23770749295573829,0.83338570013548008,1.1017065381391111,0,0,0,0
1846.9417992000001,-0.040013906165955022,-0.37785353742554534,0.84282817823427714,1.1686767581096273,0,0,0,0
1846.9580476000001,-0.042671058767735422,-0.25208620052571706,0.85230807371625539,1.1023572819843275,0,0,0,0
1846.9739050999999,-0.044281870640941252,-0.12672473050940047,0.86123539128413729,1.0360577322695672,0,0,0,0
1846.990937,-0.044848960956850287,-0.0015736961035099743,0.86961025977788231,0.96976855406066897,0,0,0,0
1847.0072371000001,-0.045413820501194614,-0.14283651058227093,0.87795346066428848,1.0367890398738839,0,0,0,0
1847.0241665999999,-0.047156476638708276,-0.28429018303521014,0.88685518991919599,1.1038171751179873,0,0,0,0
1847.0407229,-0.050079304083945696,-0.42613529927989513,0.89631554241571199,1.1708608838475907,0,0,0,0
1847.0577632,-0.053146229525358316,-0.30228321814898473,0.9058139820019715,1.1046300164817797,0,0,0,0
1847.0731102,-0.055183096618117398,-0.17891969898177232,0.91476059940454479,1.0384235065457812,0,0,0,0
1847.0900331,-0.056193219851405601,-0.055850882025111209,0.92315556026429979,0.97223176188199556,0,0,0,0
1847.1061208000001,-0.05721807130187876,-0.19909379772379221,0.93151962123915388,1.0393380851722445,0,0,0,0
1847.1220685999999,-0.0594375177203278,-0.34260368085035464,0.94044293642668186,1.106454686956146,0,0,0,0
1847.1393766000001,-0.061815087499324864,-0.22045492208577516,0.94940497784606037,1.0403047235096676,0,0,0,0
1847.1564903999999,-0.063176299424126905,-0.09866838648738098,0.95781584780878626,0.97417307404944686,0,0,0,0
1847.1721531000001,-0.063523417425772208,0.022949164799885392,0.96567566092129276,0.90804998655479485,0,0,0,0
1847.1888824,-0.063896337520217325,-0.12148651715349876,0.97350507846260248,0.97520794240492947,0,0,0,0
1847.2051464000001,-0.065473360874312533,-0.26607878173572747,0.98189416336883928,1.0423717763307851,0,0,0,0
1847.220963,-0.068256576658725296,-0.41102823918282982,0.99084299389184916,1.1095489378788597,0,0,0,0
1847.2369308,-0.071210992567703149,-0.29059989157762206,0.99983112844427191,1.0434788230435963,0,0,0,0
1847.2527035999999,-0.073163835084095588,-0.17064869369603486,1.0082687807186976,0.97743311463056159,0,0,0,0
1847.2689843000001,-0.074118332674508833,-0.050983131916041521,1.0161561161802073,0.91140207563903519,0,0,0,0
1847.2854827000001,-0.074076116375092496,0.068588643209614192,1.0234932186196013,0.84537584771063834,0,0,0,0
1847.3011535000001,-0.074075568156560051,-0.07759230829185064,1.0308006442091497,0.91260827515258147,0,0,0,0
1847.3170617999999,-0.075293422925915954,-0.22386731795141301,1.0386683481783319,0.97984407985655819,0,0,0,0
1847.3333928,-0.077731248778660514,-0.37043702042531129,1.0470963869484435,1.0470904666656839,0,0,0,0
1847.3495660999999,-0.080354398313589787,-0.25178851434668142,1.0555643673158424,0.98110513975538649,0,0,0,0
1847.3667542000001,-0.081990574690950738,-0.13355801202299555,1.0634825612541572,0.91514145679124748,0,0,0,0
1847.3836116,-0.082642517824232486,-0.015555129309990572,1.0708511108362371,0.84918959173159103,0,0,0,0
1847.3999512,-0.082311380032697723,0.10241075064518641,1.0776700758447364,0.78323962833437122,0,0,0,0
1847.4164224000001,-0.082034283841654052,-0.045119748498227683,1.0844599229617091,0.85052895374212134,0,0,0,0
1847.4328687,-0.082986660096013937,-0.19269901757113975,1.0918105161023044,0.91781994954555046,0,0,0,0
1847.4493219999999,-0.085169698933646357,-0.34052757626747077,1.0997218966017204,0.98511960679343569,0,0,0,0
1847.4655626000001,-0.087549130499194217,-0.22328621731155868,1.1076737173866187,0.91920156139010567,0,0,0,0
1847.4813078,-0.088953142779051295,-0.10641890853782753,1.1150763042503726,0.85330305665810813,0,0,0,0
1847.4984565,-0.089384113242119201,0.010263738489691792,1.1219297815175666,0.7874142141642605,0,0,0,0
1847.5152871,-0.08884284033790274,0.12695127795913391,1.1282341908720321,0.72152508646217262,0,0,0,0
1847.5319493,-0.088365415068995395,-0.021642423784539983,1.1345099242243069,0.78885879158744776,0,0,0,0
1847.5474359,-0.089126196675363811,-0.17025270198589137,1.14134676907156,0.85619301570634443,0,0,0,0
1847.5644109,-0.091126106244794572,-0.31907989969533085,1.1487447564128717,0.9235345653496243,0,0,0,0
1847.5807454999999,-0.093331258216563698,-0.20297235294968677,1.1561835817782176,0.85767084759480794,0,0,0,0
1847.5972796000001,-0.094570315638438956,-0.087207338518778696,1.1630736200158804,0.79182514373102353,0,0,0,0
1847.6138418,-0.094845396691374831,0.028403662354904595,1.1694149825958888,0.72598754454329451,0,0,0,0
1847.6299829,-0.09415704796636222,0.14404929064813154,1.1752076981492507,0.6601480860707053,0,0,0,0
1847.6457263,-0.093540518534267841,-0.0054056400187017621,1.180972096251633,0.72751745080066099,0,0,0,0
1847.6626546,-0.094169287279586941,-0.1548551888644559,1.1872979002038211,0.7948865852119894,0,0,0,0
1847.6796758,-0.096044091461087722,-0.30449949780603108,1.1941851341189791,0.86226213524444129,0,0,0,0
1847.6961426,-0.098131434086223032,-0.1893338063740545,1.2011135330548188,0.79644359015427624,0,0,0,0
1847.7119527,-0.099260447865437987,-0.074489509454402109,1.2074935173221664,0.73064203604468836,0,0,0,0
1847.7279604,-0.09943307781994698,0.040221140445890848,1.2133251897904294,0.66484754605233509,0,0,0,0
1847.7440035,-0.098649703926598623,0.15498598519966375,1.21860857038112,0.59905014782865351,0,0,0,0
1847.7609345000001,-0.097944882034094974,0.0048047027031199209,1.2238639359849726,0.66644939600397457,0,0,0,0
1847.7769839,-0.098491358138559859,-0.14535755883502516,1.2296809548357541,0.7338479695138328,0,0,0,0
1847.7938483999999,-0.100289754975427,-0.2957007294443848,1.2360596467729899,0.80125237048382747,0,0,0,0
1847.8096350999999,-0.10230697975790555,-0.18135336069692001,1.2424797847033866,0.73547307278305074,0,0,0,0
1847.8255727999999,-0.10337264705284298,-0.067315222696122848,1.2483518328019925,0.66971019424240963,0,0,0,0
1847.8416176000001,-0.10348860327404635,0.046600722138706488,1.2536758891324742,0.60395379879786903,0,0,0,0
1847.8583517,-0.10265513578102635,0.16058158887206414,1.2584519687569282,0.53819391035067632,0,0,0,0
1847.8746753999999,-0.10190621618288993,0.0097531634368570978,1.2632003026189913,0.60561964972701954,0,0,0,0
1847.89066,-0.10241396215787585,-0.14104972720147352,1.2685105098074778,0.6730445157388204,0,0,0,0
1847.9085516,-0.1041789412723408,-0.29202679004677889,1.2743826079741225,0.74047487535382739,0,0,0,0
1847.9239528999999,-0.10616850132142418,-0.17843421946512653,1.2802964081780563,0.67473175002158015,0,0,0,0
1847.9396400000001,-0.10721277779501807,-0.065146886021401396,1.2856624194069697,0.60900489457135276,0,0,0,0
1847.9566253,-0.10731358651657652,0.048021556775139744,1.2904807384658554,0.5432843697958637,0,0,0,0
1847.9730446000001,-0.10647119005654784,0.16125752396741933,1.2947513791427427,0.47756019882456047,0,0,0,0
1847.9896603,-0.10571904690182232,0.0098123126627762888,1.2989945302349197,0.54501108141070953,0,0,0,0
1848.0064663000001,-0.10622870937022204,-0.1416073638885276,1.3037997643269577,0.61246110426813072,0,0,0,0
1848.02341,-0.10800074407878288,-0.2932009684939153,1.3091670986559631,0.67991649891054928,0,0,0,0
1848.0404840000001,-0.11000300461403822,-0.18035544447588997,1.3145763852007459,0.61420912790079807,0,0,0,0
1848.0572818999999,-0.11106622189289672,-0.067819106622586958,1.3194381817831538,0.5485182983924789,0,0,0,0
1848.0737045000001,-0.11119224745445387,0.04459367151918453,1.3237525874791907,0.48283407324251243,0,0,0,0
1848.0902384999999,-0.11038138560365612,0.15706858201888724,1.3275196183654763,0.41714647735969207,0,0,0,0
1848.1065048,-0.1096666157335314,0.0049910622381685067,1.3312594218640974,0.48462303159280473,0,0,0,0
1848.1229593,-0.1102189459192769,-0.14706732560899044,1.3355615232145088,0.55209893689645806,0,0,0,0
1848.1396912,-0.11100486852140129,-0.034548477184130642,1.3399057413882023,0.48640925386335149,0,0,0,0
1848.1550663,-0.11085353051351335,0.077901767805960587,1.3437025667057501,0.42072322357109632,0,0,0,0
1848.1718009000001,-0.10976477808187508,0.19046913300501614,1.3469519906352243,0.35503087105343067,0,0,0,0
1848.188277,-0.1087712292867094,0.038512302444161761,1.3501741448341711,0.42250225580017081,0,0,0,0
