Time,Theta,ThetaDot,X,XDot,Out1,Out2,Out3,Out4
566.30388449999998,-0.28293784306108566,-0.049798417508138189,8.4898535591783983e-06,0.0021735714409958982,0,0,0,0
566.31982070000004,-0.28305125743520687,0.0273990221715842,-0.00022330239889172733,-0.061801912275785235,0,0,0,0
566.33665499999995,-0.28252129672055371,0.10463727918040741,-0.00098822744187211436,-0.12577976978386074,0,0,0,0
566.35210930000005,-0.2813470765809627,0.18205568477342049,-0.0022863361900545298,-0.18976797130810913,0,0,0,0
566.3691546,-0.27952655099865092,0.25979374682904494,-0.0041177459830174,-0.25377448908398631,0,0,0,0
566.38478659999998,-0.27705651023117805,0.33799129520605414,-0.0064826406092594333,-0.3178072990335179,0,0,0,0
566.40173760000005,-0.27393257757972544,0.41678862080333201,-0.0093812703394032821,-0.38187438111157151,0,0,0,0
566.41810090000001,-0.27014920503251599,0.49632660538624801,-0.012813951955110663,-0.44598371770233691,0,0,0,0
566.43462699999998,-0.26569966787244831,0.5767468390312398,-0.016781068754903584,-0.51014328940251086,0,0,0,0
566.45087880000005,-0.26157488221210207,0.40238764151933593,-0.020765729806119817,-0.44191012600881607,0,0,0,0
566.46710169999994,-0.25890134415766836,0.22844488475985089,-0.024181768259273064,-0.37367401102785308,0,0,0,0
566.48306909999997,-0.25667559077332724,0.31097244341152058,-0.027546637808692973,-0.4379141915669531,0,0,0,0
566.50003839999999,-0.25376007397739359,0.39404672635985744,-0.031446958629879049,-0.50218566183625679,0,0,0,0
566.51660509999999,-0.25014966176869313,0.4778152703192009,-0.035883024156576411,-0.5664967864421907,0,0,0,0
566.5328174,-0.24583799057334416,0.56242616641838417,-0.040855197449830481,-0.6308559083546027,0,0,0,0
566.5492855,-0.24182240650545708,0.39066337217897634,-0.04584607650483366,-0.56269488646859356,0,0,0,0
566.56516910000005,-0.23923641194553746,0.21932166335264291,-0.050268945557039556,-0.49453362426955316,0,0,0,0
566.58236350000004,-0.23707058688071167,0.30596750008346624,-0.054641757111462685,-0.55897294372320394,0,0,0,0
566.59902250000005,-0.23418073664292216,0.39314649347291591,-0.059551676037354215,-0.62344274313915549,0,0,0,0
566.61536579999995,-0.23056181857538269,0.48101223275609412,-0.064998990286131889,-0.68795170782863202,0,0,0,0
566.631665,-0.22620750847128188,0.56971873975273835,-0.070984060029058244,-0.75250848003539228,0,0,0,0
566.64809279999997,-0.2221207649818093,0.40062039769893704,-0.076989026625913198,-0.68442893806363381,0,0,0,0
566.66503209999996,-0.21944129907484616,0.23197012859598293,-0.082426673129967459,-0.61635176076362042,0,0,0,0
566.68150579999997,-0.21715394020571724,0.32274902783319737,-0.087815421148947914,-0.6809923242960485,0,0,0,0
566.69723780000004,-0.21410802280554334,0.41408544817910692,-0.093742958348290342,-0.74566463933345695,0,0,0,0
566.71389399999998,-0.21029827869423534,0.50613871746629457,-0.10020958433139335,-0.81037765717967358,0,0,0,0
566.73003919999996,-0.20571811075325158,0.59906847961452514,-0.10721567303459746,-0.8751402583010639,0,0,0,0
566.74636699999996,-0.20137556036141716,0.43285370863553629,-0.11424294080761645,-0.80715598582885439,0,0,0,0
566.76284250000003,-0.19841604621370137,0.26714058009944724,-0.12070369503868696,-0.73917713963806886,0,0,0,0
566.7787204,-0.19581856941971792,0.3622899317742293,-0.12711682104224478,-0.80403155756245104,0,0,0,0
566.79427759999999,-0.19242587352956406,0.45805928190773615,-0.13407053110130401,-0.86892103132525877,0,0,0,0
566.81117380000001,-0.18823214770401125,0.55461357223610186,-0.14156515317277443,-0.93385471512150686,0,0,0,0
566.82783199999994,-0.18323020591916564,0.65211791537349395,-0.14960109108479114,-0.9988416515328099,0,0,0,0
566.84361390000004,-0.17843282147303213,0.48918405073891674,-0.15765965258801454,-0.93097308525767475,0,0,0,0
566.86132710000004,-0.17499079348786795,0.32683809826333715,-0.16515268163748265,-0.86311410041787173,0,0,0,0
566.87733349999996,-0.17289995673698233,0.16489157666364537,-0.17208024857649229,-0.79526213393225587,0,0,0,0
566.89420159999997,-0.17113443691474581,0.26515946800297663,-0.17896171321162291,-0.86036142894472067,0,0,0,0
566.91080620000002,-0.16853173358575407,0.36587192510128924,-0.18638576273167703,-0.92548564936862754,0,0,0,0
566.92736509999997,-0.16508747094871701,0.46720074456763205,-0.19435264203295388,-0.99064429704029988,0,0,0,0
566.94359599999996,-0.16079584163005445,0.56931770074718846,-0.20286267476287537,-1.0558467567249064,0,0,0,0
566.95929650000005,-0.15667561002710184,0.4096601744583766,-0.21139671253778788,-0.98808958693114168,0,0,0,0
566.9764242,-0.15388372454974125,0.25051488510179071,-0.21936615243404775,-0.92034336977980424,0,0,0,0
566.99216030000002,-0.15138950212407004,0.3546931058079697,-0.22729070608543414,-0.98563485189939681,0,0,0,0
567.00901150000004,-0.14802494195524593,0.45946206552556879,-0.23575947642568315,-1.0509590073558883,0,0,0,0
567.02576039999997,-0.14378443433760105,0.56499757491006697,-0.24477277296108041,-1.1163253385912806,0,0,0,0
567.0425831,-0.13969007931228444,0.40793411204103952,-0.25381117429197358,-1.0486646954886261,0,0,0,0
567.05948079999996,-0.13690240734579026,0.25139426568507217,-0.26228579069111807,-0.98101706364257935,0,0,0,0
567.07643399999995,-0.13438760412983916,0.3589648986480225,-0.2707165987847871,-1.0464723968358867,0,0,0,0
567.09249850000003,-0.13097419410546715,0.4671266544872919,-0.27969298748196592,-1.1119600282974755,0,0,0,0
567.10931670000002,-0.12665655021735586,0.57605894078651132,-0.2892152633881962,-1.1774895129128873,0,0,0,0
567.12545650000004,-0.12245956995620487,0.42167558753269507,-0.29876376887936745,-1.1099324738472174,0,0,0,0
567.14219260000004,-0.11954681622685537,0.26784688937333656,-0.30774936324369262,-1.0423910016745217,0,0,0,0
567.1585235,-0.11688146758252188,0.37886244630001231,-0.31669226939429018,-1.1080125259699585,0,0,0,0
567.17494980000004,-0.11328870699998794,0.49049465720447105,-0.32618214452938599,-1.1736672327136168,0,0,0,0
567.19085849999999,-0.10876268188275738,0.60292617046362196,-0.33621930256745924,-1.2393646555517261,0,0,0,0
567.20666300000005,-0.10433062986613791,0.45141397107047931,-0.34628387953387951,-1.1719222594609915,0,0,0,0
567.22354440000004,-0.10115866882919201,0.30050983165108502,-0.35578651432423675,-1.1044988061071084,0,0,0,0
567.24049170000001,-0.099242499683380933,0.15001671045792531,-0.36472734258478429,-1.037088509755054,0,0,0,0
567.25751390000005,-0.09754380665529748,0.26490451431951167,-0.3736267836000533,-1.1028930033103226,0,0,0,0
567.27439200000003,-0.094886198661378679,0.38021373502141914,-0.38307467576864968,-1.1687198087934108,0,0,0,0
567.29113770000004,-0.09126543283654534,0.49613143614227295,-0.39307124310197183,-1.2345786405880996,0,0,0,0
567.30724740000005,-0.086675709638740481,0.61284408376997168,-0.4036167897243344,-1.3004789842788163,0,0,0,0
567.32432970000002,-0.082146932723971847,0.46494180150689113,-0.41419122433620437,-1.2331835760134831,0,0,0,0
567.34135449999997,-0.078848020804724042,0.31768409412824333,-0.42420495542312175,-1.1659105027369003,0,0,0,0
567.35839120000003,-0.076774374321048208,0.17087296144481223,-0.43365814409230341,-1.0986532627021131,0,0,0,0
567.37550520000002,-0.074884926783988434,0.2901060365365663,-0.44307143302595708,-1.1646648840001987,0,0,0,0
567.39254559999995,-0.072000229036233473,0.40979304727519861,-0.45303490345573494,-1.2306998913979732,0,0,0,0
567.40912920000005,-0.068115754063364106,0.53012438765767955,-0.46354878782134701,-1.2967678566022207,0,0,0,0
567.4253258,-0.064264377777041762,0.38525940126806396,-0.47409278335130162,-1.2295968695487089,0,0,0,0
567.44238429999996,-0.061617929313020146,0.24094302540155266,-0.48407710570182499,-1.1624464094194253,0,0,0,0
567.45786969999995,-0.059133175859072608,0.36311082796555122,-0.49402254524798728,-1.22859743864233,0,0,0,0
567.47481310000001,-0.055628290275905108,0.48584185288940163,-0.50451934753854999,-1.2947768077343245,0,0,0,0
567.49140829999999,-0.051097829296747527,0.60932785519264387,-0.51556778526365754,-1.3609938099590697,0,0,0,0
567.50702520000004,-0.046574990793815607,0.46741240645288007,-0.52664749046139869,-1.2939502626433359,0,0,0,0
567.52401350000002,-0.043232000560917652,0.32617377083877069,-0.53716860915870979,-1.2269335175578031,0,0,0,0
567.53975370000001,-0.04106399287232429,0.18541336593189267,-0.54713133562853111,-1.159936043218734,0,0,0,0
567.55681660000005,-0.039027031611287663,0.31139330523552,-0.55705655317831693,-1.2262647639524014,0,0,0,0
567.57320059999995,-0.035938527171204403,0.43784563975211671,-0.5675345936938343,-1.2926165482317729,0,0,0,0
567.58965209999997,-0.031793782136342166,0.56496494326453361,-0.578565685516508,-1.3590005935299148,0,0,0,0
567.60582690000001,-0.027627670547026632,0.42636039036377177,-0.58962933883579793,-1.2920999697364655,0,0,0,0
567.62224690000005,-0.024613991166711438,0.28838784435048864,-0.60013559609908196,-1.2252258905608591,0,0,0,0
567.63860179999995,-0.022748252805584551,0.15084849094645736,-0.61008464715784128,-1.1583702562839702,0,0,0,0
567.65554350000002,-0.020986178802376285,0.28018558706212654,-0.61999742522226708,-1.2248542322889573,0,0,0,0
567.67168030000005,-0.018144805705064725,0.40993901039241232,-0.63046430698408329,-1.2913578964352617,0,0,0,0
567.68773539999995,-0.01421989561445865,0.54030530052125814,-0.64148549196416516,-1.3578902688289263,0,0,0,0
567.70363769999994,-0.010247235282845457,0.40478089886193269,-0.65254042306234195,-1.2911255547383775,0,0,0,0
567.72033599999997,-0.0074014175709764549,0.26986850063077983,-0.66303909244074999,-1.2243877561114409,0,0,0,0
567.73538840000003,-0.0056781165502398376,0.13536969949049255,-0.67298169137575803,-1.1576683557054541,0,0,0,0
567.75154299999997,-0.0040329226397526645,0.26780219951500484,-0.68288917514634218,-1.2242940734417922,0,0,0,0
567.76854539999999,-0.0012827368420707049,0.40062509663589518,-0.69335193671605333,-1.2909376234038763,0,0,0,0
567.78506640000001,0.0025764679204470669,0.53403626121762837,-0.70437015916336276,-1.3576077732156473,0,0,0,0
567.80079060000003,0.0065086145145980068,0.40151521247960564,-0.71542326115622812,-1.2909777264217459,0,0,0,0
567.81794179999997,0.0093389677540992849,0.26961177962966376,-0.72592122899183475,-1.2243759029869545,0,0,0,0
567.83415779999996,0.011071903921651917,0.13812849913835981,-0.73586426360742696,-1.1577934735860484,0,0,0,0
567.85110259999999,0.012751826643083454,0.27356630139851307,-0.74577332155922682,-1.2245551803676491,0,0,0,0
567.86765609999998,0.015561790228055828,0.4093958815867379,-0.75623878831645275,-1.291334089874659,0,0,0,0
567.88313189999997,0.019505836482919248,0.54581590682520542,-0.76726084041387876,-1.3581386317636348,0,0,0,0
567.89995060000001,0.023548175651123892,0.41637996252857551,-0.77831891121717101,-1.2916485709952816,0,0,0,0
567.91679409999995,0.02651455855773472,0.28759463052930728,-0.78882302445162678,-1.225189261485784,0,0,0,0
567.93448169999999,0.028409642242561761,0.15926394400673535,-0.79877340121358564,-1.1587516437463345,0,0,0,0
567.95072470000002,0.029236446902502718,0.031191041544305964,-0.80817018598952151,-1.0923263943861796,0,0,0,0
567.96744100000001,0.030037571588797225,0.16976166254953975,-0.81753423745279163,-1.1592282541162342,0,0,0,0
567.98407629999997,0.031994225116397754,0.30856587547400383,-0.8274558369423396,-1.2261399253188672,0,0,0,0
568.00043419999997,0.035109136756473022,0.44780385960952968,-0.8379350986636408,-1.2930696659847898,0,0,0,0
568.01728370000001,0.038345767841997315,0.32117438833208012,-0.84845143936607836,-1.2267094956070821,0,0,0,0
568.0338855,0.040529287061126712,0.1950566129252094,-0.85841488236911423,-1.1603742306828877,0,0,0,0
568.04995540000004,0.041663195667137595,0.069255109105180998,-0.86782559858027852,-1.0940544527231322,0,0,0,0
568.06673809999995,0.042790027960402682,0.2100130737716572,-0.87720442534589482,-1.1610526157089216,0,0,0,0
568.08273750000001,0.045090827429881929,0.35105850521227144,-0.88714160995718983,-1.228062393801943,0,0,0,0
568.09905240000001,0.048568771856439423,0.49259142099445447,-0.89763728017910471,-1.2950916572176332,0,0,0,0
568.11536590000003,0.052188501650074347,0.36850252094408742,-0.90817092565331581,-1.2288487341691383,0,0,0,0
568.13148230000002,0.054776604559373651,0.24500594220398114,-0.91815266823098252,-1.1626352492681804,0,0,0,0
568.14740380000001,0.056337261519552484,0.12190825184414482,-0.92758271636333778,-1.096441721553769,0,0,0,0
568.16443179999999,0.056873038985292654,-0.00098457703391748898,-0.93646119866902522,-1.0302584764757994,0,0,0,0
568.18138699999997,0.057424623508495816,0.14233683711554726,-0.94530883189744841,-1.0973684228208949,0,0,0,0
568.19783540000003,0.059171145412612286,0.28584547069130634,-0.95471573747051386,-1.1644855711398878,0,0,0,0
568.21383040000001,0.062114949008698399,0.4297418778966326,-0.96468200528065484,-1.231617522976558,0,0,0,0
568.22932809999998,0.065220792055558613,0.3081610530445249,-0.97468716433862101,-1.1654928879791777,0,0,0,0
568.24610849999999,0.067315558462959169,0.18708304337954212,-0.98414139102331821,-1.0993937570243135,0,0,0,0
568.26315390000002,0.068402687803831227,0.066315613198811796,-0.99304486019418858,-1.033310453201824,0,0,0,0
568.27967839999997,0.069522836453430284,0.21163219168063341,-1.0019182573091412,-1.1005056556586137,0,0,0,0
568.29598550000003,0.071854911882663366,0.35722881791722166,-1.0113516496176698,-1.1677111531597788,0,0,0,0
568.31121540000004,0.07436358640625268,0.23744788170518855,-1.020824595130446,-1.1016725167103329,0,0,0,0
568.32804799999997,0.075875754183254721,0.11806002617170588,-1.0297473043436487,-1.0356540863564514,0,0,0,0
568.34428979999996,0.076393943567669487,-0.0011261224444577026,-1.0381199073972163,-0.96964604955200662,0,0,0,0
568.36041350000005,0.07695720217319367,0.14548575931745097,-1.0464629864159809,-1.0368965825905636,0,0,0,0
568.37713489999999,0.078742816891765099,0.29228432071696669,-1.0553665075919014,-1.1041537697321973,0,0,0,0
568.39313079999999,0.081753125842926933,0.43946966150483269,-1.0648305539848957,-1.1714246279411487,0,0,0,0
568.40946940000003,0.084954671200218046,0.32164100607217844,-1.0743347940188541,-1.1054766269586913,0,0,0,0
568.42515730000002,0.087176521654266939,0.20434479136412481,-1.0832895822192787,-1.0395563130158347,0,0,0,0
568.44197780000002,0.088422375455162391,0.087391817298912197,-1.0916951113032973,-0.97365392575463616,0,0,0,0
568.45869660000005,0.088694352722576281,-0.029407453592939527,-1.0995514920819605,-0.90775957252472617,0,0,0,0
568.47509219999995,0.089029851574954008,0.11922464637224645,-1.1073791828362414,-0.97509493264767544,0,0,0,0
568.490861,0.090604391412100679,0.26800489268436289,-1.1157680164081105,-1.0424352876145664,0,0,0,0
568.50770920000002,0.093419988009907404,0.41713308541419813,-1.1247180606551828,-1.1097873067715529,0,0,0,0
568.52483280000001,0.096444142889720669,0.30153867766590575,-1.1337090732725559,-1.04394584774706,0,0,0,0
568.5414356,0.098507110072985835,0.18644846401790574,-1.142151517592356,-0.97813095907810754,0,0,0,0
568.55816289999996,0.099612359248427609,0.071675009336601064,-1.1500455767855675,-0.91233282316026598,0,0,0,0
568.57510539999998,0.099761797016941989,-0.042969379391177412,-1.157391351725737,-0.84654151074480932,0,0,0,0
568.59057770000004,0.099991330493311631,0.1074645572189047,-1.1647091834648557,-0.91395137693015982,0,0,0,0
568.60782919999997,0.1014748504157698,0.2580286663414465,-1.1725887758461599,-0.98136539071412254,0,0,0,0
568.62375059999999,0.10317897819025475,0.14388467169086433,-1.1805098983501063,-0.91559646243505932,0,0,0,0
568.64047770000002,0.10393300370153906,0.029988581722378324,-1.1878830047804725,-0.84984070844326354,0,0,0,0
568.65625739999996,0.1037382624064737,-0.08384660806660317,-1.1947081660654304,-0.78408817219046711,0,0,0,0
568.67214669999998,0.10362960812863416,0.067206480073160296,-1.2015056535842183,-0.85152339996521897,0,0,0,0
568.68908109999995,0.10477988930751016,0.2183358127884773,-1.2088651061764917,-0.918960986785201,0,0,0,0
568.7061506,0.10719052040487341,0.36974068890559908,-1.216786568002501,-0.98640716979503951,0,0,0,0
568.72202770000001,0.10983011969456251,0.25679143203611887,-1.2247499126570602,-0.92069309329260007,0,0,0,0
568.73883220000005,0.11153030331124733,0.14427738470451651,-1.2321657376783091,-0.85500228198532413,0,0,0,0
568.75554739999995,0.11229397431317792,0.03201324354358253,-1.239034198438441,-0.78932485938776109,0,0,0,0
568.77250949999996,0.11212249087146271,-0.080186448165213059,-1.2453553676563434,-0.7236508703972564,0,0,0,0
568.7888792,0.11204961772264625,0.072219298445759167,-1.2516494252701293,-0.79114098917818898,0,0,0,0
568.80539120000003,0.11324697418773173,0.2247068184874659,-1.2585059057967833,-0.85863351880645455,0,0,0,0
568.82132420000005,0.11468234538114783,0.11283879334203706,-1.2654046927220002,-0.79297423127853983,0,0,0,0
568.8380568,0.11518638575724938,0.0011691232684201223,-1.2717563674138181,-0.72732559782015305,0,0,0,0
568.85435329999996,0.11476002591940443,-0.11048712312579856,-1.2775609797584166,-0.66167765511080123,0,0,0,0
568.87073559999999,0.11443624846427125,0.042321624950974274,-1.2833386578477757,-0.72918393523388569,0,0,0,0
568.88746619999995,0.11538590576594211,0.19517290505265641,-1.2896788888674733,-0.79669141953784695,0,0,0,0
568.90404420000004,0.11657674924833612,0.08370292728460671,-1.2960615697146005,-0.73105166629649154,0,0,0,0
568.92056560000003,0.11683939094865367,-0.027616777011743532,-1.3018972910624995,-0.66541999189926226,0,0,0,0
568.93719929999997,0.11617436200395775,-0.13897082282780962,-1.3071860813118559,-0.59978642924348657,0,0,0,0
568.95366139999999,0.11561405741961649,0.0140456897459337,-1.3124480319883831,-0.6673009157546389,0,0,0,0
568.96961269999997,0.11632877508566422,0.16706788982108278,-1.3182725997051135,-0.73481550460759015,0,0,0,0
568.98648430000003,0.11831933884641264,0.32029445292423075,-1.324659808259349,-0.80233604726089602,0,0,0,0
569.00269030000004,0.12055532596930578,0.20949226185187358,-1.33108963635227,-0.73672611730277937,0,0,0,0
569.01833669999996,0.12186949356279772,0.099049802846865695,-1.3369727977436903,-0.67113561601841998,0,0,0,0
569.03504989999999,0.12226412281819325,-0.011216390607633409,-1.3423094157053357,-0.60555463942110777,0,0,0,0
569.05121610000003,0.12173996566447694,-0.12148986239858678,-1.3470995307425873,-0.53997323351077997,0,0,0,0
569.06741179999995,0.12132881928560522,0.032422648213427212,-1.351863177705555,-0.60752359024747316,0,0,0,0
569.08416899999997,0.1222002541748735,0.18636440844391028,-1.3571897433735629,-0.67507471365583915,0,0,0,0
569.10070270000006,0.12332291573574873,0.076229097631298148,-1.3625592034741951,-0.60949931516407285,0,0,0,0
569.11689879999994,0.12352845041888796,-0.033767819547223819,-1.3673822380230272,-0.5439313977521083,0,0,0,0
569.13381079999999,0.12281729554624271,-0.14380962915517984,-1.371658870485948,-0.47836100698882289,0,0,0,0
569.15018220000002,0.12222078232461779,0.010259417199152228,-1.3759091065814597,-0.54591745645294942,0,0,0,0
569.1660412,0.12290804321244794,0.1643291264072875,-1.3807223089778338,-0.61347385362732487,0,0,0,0
569.18303330000003,0.12384758394278943,0.054317018021758305,-1.3855784541186849,-0.547904643801157,0,0,0,0
569.19889929999999,0.12387088192454428,-0.055593178339066573,-1.3898882175564404,-0.48234093686110663,0,0,0,0
569.2158604,0.12297807078153621,-0.1655846646062181,-1.39365160626389,-0.41677277815515906,0,0,0,0
569.23251619999996,0.12220016369486561,-0.01150399878664855,-1.3973886088119982,-0.48432952023637321,0,0,0,0
569.24811130000001,0.12270601809151885,0.14254930865848234,-1.4016885769846819,-0.55188541250614465,0,0,0,0
569.26512739999998,0.12346386597524335,0.032481004921690725,-1.4060314767021493,-0.48631369886982806,0,0,0,0
569.28150089999997,0.12330486067686371,-0.077521791683139135,-1.4098279661251474,-0.42074550919909454,0,0,0,0
569.29718149999997,0.12222883208777792,-0.18764237141423942,-1.4130780357268149,-0.35517088849136869,0,0,0,0
