Time,Theta,ThetaDot,X,XDot,Out1,Out2,Out3,Out4
910.63039260000005,-0.13623086014615579,-0.024368470048952394,4.2862440884964778e-06,0.0010973960856339999,0,0,0,0
910.64736970000001,-0.13601411354053708,0.08311148639368332,-0.00024221712408840232,-0.064348955114611792,0,0,0,0
910.6628068,-0.13490132376653916,0.19071990297504818,-0.0010341275740175081,-0.12980239011141717,0,0,0,0
910.67876679999995,-0.13289071493128066,0.29863734180725821,-0.002371542754547107,-0.19527278455829475,0,0,0,0
910.69482310000001,-0.12997900695374959,0.40704422407534635,-0.0042546423222787474,-0.26076993135946619,0,0,0,0
910.71078220000004,-0.12719283682926086,0.25201938850666578,-0.0061636975928965176,-0.19318098192657926,0,0,0,0
910.72762409999996,-0.12569709768479617,0.097329050926112201,-0.0075095512505071391,-0.12560126064778229,0,0,0,0
910.74413289999995,-0.12548977191591243,-0.057224090245418718,-0.0082922595285190529,-0.058025425883855127,0,0,0,0
910.76004460000001,-0.1255385675921015,0.052359547233297284,-0.0090318519942805438,-0.12357337953477351,0,0,0,0
910.77606049999997,-0.12467399581403774,0.16201920665022343,-0.010317686821064678,-0.18912550476577308,0,0,0,0
910.79200260000005,-0.12289470890326294,0.27193769486820357,-0.012149837582345273,-0.25469172824275854,0,0,0,0
910.80798809999999,-0.12019783632696106,0.38229766362769679,-0.014528460313192798,-0.3202819003963272,0,0,0,0
910.82440210000004,-0.11761190146907445,0.22880084395633066,-0.016933680761240709,-0.252752379233598,0,0,0,0
910.84017019999999,-0.11630376296363874,0.075613033575081215,-0.018776194515194796,-0.18523193102839122,0,0,0,0
910.85610169999995,-0.11627161947415653,-0.077464025260514505,-0.020056054934961754,-0.11771481701029259,0,0,0,0
910.8720922,-0.11648202474948398,0.03392038859987806,-0.021293399333217531,-0.18334959102352572,0,0,0,0
910.88780629999997,-0.11576417940867227,0.14534958095443146,-0.023077702858926751,-0.24898681613558094,0,0,0,0
910.9049622,-0.11411698899710242,0.25700818587449503,-0.025409024846372193,-0.31463644509738997,0,0,0,0
910.92168379999998,-0.11153782101005928,0.36908067058370991,-0.028287507324157201,-0.3803083575500536,0,0,0,0
910.93789419999996,-0.10905665254316926,0.21695787475873973,-0.03119316122303125,-0.31283340561509942,0,0,0,0
910.95380590000002,-0.10784187603272304,0.065132229303903111,-0.033536563787611461,-0.2453676240183354,0,0,0,0
910.97083259999999,-0.10685726088654558,0.1782784008379496,-0.035838005769199287,-0.31108763630785635,0,0,0,0
910.98721699999999,-0.1049287882786271,0.29170654218958803,-0.038687166664403486,-0.37682275195764542,0,0,0,0
911.00352859999998,-0.1020533817771327,0.40560262930988372,-0.042084210888650907,-0.44258281806571204,0,0,0,0
911.0199116,-0.099261823272196251,0.25503585021209862,-0.045509066722015379,-0.37517179729437966,0,0,0,0
911.03687820000005,-0.09772347674407339,0.10482074070413944,-0.048372212870124817,-0.30777217321285161,0,0,0,0
911.05288559999997,-0.097436189574214072,-0.045242054775510958,-0.050673719607163027,-0.24037757496665291,0,0,0,0
911.07006190000004,-0.097363653727204583,0.069844996593576458,-0.052933945805193179,-0.30619007275818011,0,0,0,0
911.08664569999996,-0.09633178885851984,0.18503455424417398,-0.055742623924082899,-0.37200803143479899,0,0,0,0
911.10230300000001,-0.094339005959949665,0.3005146894296814,-0.059099838318419841,-0.43784138297095881,0,0,0,0
911.11908879999999,-0.091382149751358471,0.41647318869347733,-0.063005755736815688,-0.50369995157958958,0,0,0,0
911.13555489999999,-0.088493182075801535,0.26765656792987613,-0.06694020146744499,-0.43636099400895778,0,0,0,0
911.15260049999995,-0.08684275544102979,0.11921362498509257,-0.070313543514209598,-0.36903477414145436,0,0,0,0
911.16980839999997,-0.086428535624008804,-0.029055461232753536,-0.073125861981257728,-0.30171457498832094,0,0,0,0
911.18634650000001,-0.086212769646614146,0.088172005965466982,-0.07589762831387481,-0.3676293358456057,0,0,0,0
911.20283270000004,-0.085019727389631483,0.20553058199202748,-0.079218704354724889,-0.43355098422552574,0,0,0,0
911.21994389999998,-0.082847574393076204,0.32321014379128254,-0.083089186199933052,-0.49948941125514701,0,0,0,0
911.2358481,-0.079692895168176112,0.44140020300789323,-0.087509251919836911,-0.56545437867330839,0,0,0,0
911.25186929999995,-0.076588613471142597,0.29453388245339823,-0.091958635375376255,-0.4981971142931057,0,0,0,0
911.26902600000005,-0.074706454197925751,0.1480837294628673,-0.095847604637869316,-0.43095476076619516,0,0,0,0
911.28499250000004,-0.074043729941918338,0.0018496760816015308,-0.099176256616846439,-0.36372026244135702,0,0,0,0
911.30104229999995,-0.073561088595331919,0.12147529410383029,-0.10246518097334449,-0.42974913684012728,0,0,0,0
911.31688959999997,-0.072080985124793037,0.24128387201307233,-0.1063043760346559,-0.4957874591833118,0,0,0,0
911.33295109999995,-0.06960114582609922,0.36146709829886753,-0.11069395892097331,-0.56184503494868132,0,0,0,0
911.35000209999998,-0.067156522629147605,0.21623390221921182,-0.11511352985223315,-0.49465516215432886,0,0,0,0
911.36595680000005,-0.065920816556487336,0.071313258162730916,-0.11897323579045757,-0.42747694888045551,0,0,0,0
911.38286540000001,-0.065892206896810843,-0.073495648067506414,-0.12227314497691334,-0.36030295627111347,0,0,0,0
911.39912779999997,-0.066031518701257924,0.047625465407315895,-0.12553387231782867,-0.42640255777997621,0,0,0,0
911.41618089999997,-0.065161371793374973,0.16881049631107056,-0.1293454356834946,-0.49250544263659957,0,0,0,0
911.43272969999998,-0.063280479440829776,0.29025244866566829,-0.13370790083939557,-0.55862142909184886,0,0,0,0
911.4489671,-0.060385947814784846,0.41214395328309061,-0.13862141496584984,-0.62476021616356359,0,0,0,0
911.46498650000001,-0.057512847806215135,0.26850378944835845,-0.14356554526406287,-0.55763909681892565,0,0,0,0
911.48175819999994,-0.055835089380982091,0.1252531011324092,-0.147950396729606,-0.49053298792819616,0,0,0,0
911.49731129999998,-0.05535020989557507,-0.017808735824882641,-0.1517760647456087,-0.42343423955124954,0,0,0,0
911.51358149999999,-0.055017580289876494,0.10534651137676562,-0.15556325772037682,-0.48962977448937456,0,0,0,0
911.53058399999998,-0.053658188858218187,0.22865602533924065,-0.15990210374185759,-0.55583307416450145,0,0,0,0
911.54569700000002,-0.05126999091945348,0.35231406991235176,-0.16479270545664026,-0.62205382919048702,0,0,0,0
911.5627025,-0.048889504340775228,0.21018806579293647,-0.1697145360592707,-0.55499717364067747,0,0,0,0
911.57944239999995,-0.047692048428198068,0.068372831108258453,-0.1740776148817452,-0.48795287150630706,0,0,0,0
911.59530689999997,-0.04767581806985776,-0.073332623332641664,-0.17788201394934999,-0.42091297553282569,0,0,0,0
911.61236899999994,-0.047800358717890519,0.051222671912383069,-0.18164845597278176,-0.48717419557991004,0,0,0,0
911.62766739999995,-0.046886807336299838,0.17584617442568681,-0.18596708141786408,-0.55343882094631236,0,0,0,0
911.6433644,-0.044933832342955643,0.30073320827664662,-0.19083795649369117,-0.61971652109068609,0,0,0,0
911.65890049999996,-0.041938476018795981,0.42607863849784572,-0.19626122752106576,-0.68601682784001361,0,0,0,0
911.67586979999999,-0.038936881271767608,0.28561161953154507,-0.20171636472330737,-0.61903314542181997,0,0,0,0
911.69170540000005,-0.03710405662129878,0.14556703400975929,-0.20661337755541795,-0.55206673650475246,0,0,0,0
911.70884939999996,-0.036437264020386918,0.0057444516663538482,-0.21095237847927878,-0.48510949459286817,0,0,0,0
911.72591620000003,-0.035894508831461405,0.13245177815287393,-0.21525418006042399,-0.55147126737426655,0,0,0,0
911.74269379999998,-0.034295240004024924,0.25935244049146899,-0.22010902663599341,-0.61784246643737883,0,0,0,0
911.7590103,-0.031637079202688601,0.38664274337324644,-0.22551703385276031,-0.68423255905780378,0,0,0,0
911.77584209999998,-0.028957190446682612,0.24794007351308472,-0.23095760414780361,-0.61732593689115922,0,0,0,0
911.79241939999997,-0.027431563845171487,0.10960989785398216,-0.23584068628655758,-0.55043500891022978,0,0,0,0
911.80886109999994,-0.027057877839869574,-0.028548260014608591,-0.24016637842795105,-0.48355138549477295,0,0,0,0
911.82473249999998,-0.026794185159364183,0.099867557871561805,-0.24445550718491613,-0.54999242176704055,0,0,0,0
911.8418795,-0.025459945113362095,0.22842474296629642,-0.24929833120896264,-0.61644024294585453,0,0,0,0
911.85755170000004,-0.023053208410274573,0.3573206416419874,-0.25469494381665592,-0.68290423845175774,0,0,0,0
911.87429610000004,-0.020611838706130571,0.22010428545758837,-0.2601247020711695,-0.61606328464696491,0,0,0,0
911.89065559999995,-0.019312491374330568,0.083223011104294364,-0.26499751469490507,-0.54923677820786998,0,0,0,0
911.90668730000004,-0.019153156297047804,-0.053523546903222349,-0.26931346860414412,-0.48241611782596072,0,0,0,0
911.9227181,-0.019091968738949958,0.076324926513290939,-0.27359339644079861,-0.5489233028406002,0,0,0,0
911.93874210000001,-0.017948440676414594,0.20627761127923699,-0.2784275636035296,-0.61543541820154468,0,0,0,0
911.95582339999999,-0.01572092946423086,0.33653262643784376,-0.28381604761526452,-0.68196176939435449,0,0,0,0
911.9727547,-0.013447766227621673,0.20059851432065767,-0.28923817575532235,-0.615177966243865,0,0,0,0
911.98945909999998,-0.012306042764792002,0.064973201757780707,-0.29410383118569849,-0.54840772552123351,0,0,0,0
912.00637070000005,-0.012293967254743604,-0.070543473638395457,-0.29841309279042788,-0.48164228202897391,0,0,0,0
912.02202980000004,-0.012369755800240478,0.060543859192399498,-0.3026867952227002,-0.54820640525174413,0,0,0,0
912.03832920000002,-0.011352977133124187,0.19171064222362533,-0.30751520675790095,-0.6147742370593926,0,0,0,0
912.05426680000005,-0.0092421926635425939,0.32315558563688745,-0.31289839438925537,-0.68135499564540103,0,0,0,0
912.07034920000001,-0.0070760255765663421,0.18836526188686251,-0.31831566689769669,-0.61462252375264514,0,0,0,0
912.08659220000004,-0.006031830050893877,0.053867558831454949,-0.32317689256037552,-0.54790310386315566,0,0,0,0
912.10382240000001,-0.0061079481033627899,-0.08053742173417891,-0.32748214548025734,-0.48118783860670794,0,0,0,0
912.11959920000004,-0.0062626547510561195,0.051664781722779454,-0.33175226060583635,-0.54780297629046171,0,0,0,0
912.13614389999998,-0.00531555856281092,0.18393244586122884,-0.33657750731261205,-0.61442112952012917,0,0,0,0
912.15289840000003,-0.0032653357064407907,0.31646474950427272,-0.34195794645930683,-0.68105142543563668,0,0,0,0
912.16877729999999,-0.0011507600473434666,0.1827395938360856,-0.34737287703363279,-0.61436702334867865,0,0,0,0
912.18594949999999,-0.00014930588208175022,0.049300370003301092,-0.35223216094056092,-0.54769554942296805,0,0,0,0
912.20282589999999,-0.00025936975810187665,-0.084052503865786346,-0.35653587080911825,-0.48102799468910062,0,0,0,0
912.21858729999997,-0.00043925352260924301,0.049202423996430419,-0.36080484139015967,-0.54769109713983255,0,0,0,0
912.23521029999995,0.00049142163181999207,0.1825186263258845,-0.36562934242542344,-0.61435698453389109,0,0,0,0
912.25197809999997,0.0025339461615974594,0.31609566698250319,-0.37100943247128637,-0.68103468641323195,0,0,0,0
912.26961200000005,0.0046495198281737088,0.18341381101357782,-0.37642440809893368,-0.6143975872266898,0,0,0,0
912.28603859999998,0.0056606761904225778,0.051020518485092953,-0.38128413243144993,-0.54777370091386646,0,0,0,0
912.30325210000001,0.0055690420894396629,-0.081283416795496971,-0.38558868008308628,-0.48115391970621041,0,0,0,0
912.31953599999997,0.0054163245563824437,0.053019572838320594,-0.38985888559718995,-0.54786456868624078,0,0,0,0
912.33529309999994,0.0063829199055628174,0.18738904645783178,-0.39468501861852406,-0.61457819685960824,0,0,0,0
912.3513385,0.0084701632965580829,0.32202489274468177,-0.40006713890118806,-0.68130372469304812,0,0,0,0
912.36711030000004,0.010639349457970895,0.19042095138412374,-0.40548454765828207,-0.61471569604598009,0,0,0,0
912.3830845,0.011713148519596548,0.059117835899973867,-0.41034711696695686,-0.5481416133403908,0,0,0,0
912.39941290000002,0.011693291297242068,-0.072083203639455487,-0.41465492719652081,-0.48157227754068371,0,0,0,0
912.41524370000002,0.011621527833858657,0.063319481984049783,-0.41892881255380665,-0.54833258698856158,0,0,0,0
912.43229929999995,0.012678298592963747,0.19880335008686814,-0.42375904169431344,-0.61509647854446703,0,0,0,0
912.44842010000002,0.014865062333209174,0.33456856339242413,-0.42914567890702998,-0.68187274479129223,0,0,0,0
912.46465149999995,0.017143340735543244,0.20413637950972807,-0.43456803773962999,-0.61533825388301089,0,0,0,0
912.48101120000001,0.018336085098411281,0.074027759213666722,-0.43943600819788642,-0.54881895544279413,0,0,0,0
912.49751089999995,0.018445217975671748,-0.055955474252427959,-0.44374968070620463,-0.48230556360944243,0,0,0,0
912.51337820000003,0.018512559253401395,0.080656560092594878,-0.44802988825418449,-0.5491202017546527,0,0,0,0
912.53044260000001,0.01971860913704903,0.21737452161495538,-0.45286689637005012,-0.6159394318370458,0,0,0,0
912.54667059999997,0.022065033504802743,0.35439879023840343,-0.45826077716026703,-0.68277188924998178,0,0,0,0
912.56305459999999,0.024513738997914862,0.22529752989590968,-0.46369086590093112,-0.61629841573980848,0,0,0,0
912.57892059999995,0.025888136400184648,0.096554507900501282,-0.46856708205967185,-0.54984199363398201,0,0,0,0
912.5950206,0.026190440163461056,-0.032027706887056751,-0.47288953123746874,-0.48339325392225491,0,0,0,0
912.61117899999999,0.026462551301710411,0.10596582604232974,-0.47717904273600203,-0.55026956503844338,0,0,0,0
912.62712480000005,0.027885023187073518,0.24410107289231148,-0.48202587442245409,-0.61715188909356344,0,0,0,0
912.64438029999997,0.029418572132296875,0.1159919796855271,-0.4869093160121597,-0.55072470477061408,0,0,0,0
912.66102230000001,0.029885428899998515,-0.01192584358288068,-0.49123924020217596,-0.48430671604652181,0,0,0,0
912.67665209999996,0.029286416560657953,-0.13984976135378016,-0.49501568654491751,-0.41788842212390054,0,0,0,0
912.69245750000005,0.028661950656226089,-0.0013872666810469617,-0.49875941024898113,-0.48478552528974428,0,0,0,0
912.70860040000002,0.029191142700584382,0.13706061555891319,-0.5030606014657798,-0.5516819974425774,0,0,0,0
912.72501690000001,0.030874656197405117,0.27569486582350211,-0.5079192881061757,-0.61858631752883964,0,0,0,0
912.74105559999998,0.032673695196212063,0.14816000156609657,-0.51281478483690413,-0.55218557588287143,0,0,0,0
912.75756569999999,0.033411023435279831,0.020866707460425821,-0.51715699423214345,-0.48579651288122139,0,0,0,0
912.77354769999999,0.033087884785963667,-0.10638197894612408,-0.52094597645090079,-0.41940960103961911,0,0,0,0
912.79028019999998,0.032744968403442265,0.032767992872971635,-0.52470249434958893,-0.48633721067158198,0,0,0,0
912.80660669999997,0.033561631787445159,0.17195273525067387,-0.52901674212919791,-0.55326625825979248,0,0,0,0
912.82269169999995,0.035538950112684445,0.31137323768640496,-0.53388876451995249,-0.62020510742265855,0,0,0,0
912.83879219999994,0.037638741342914804,0.18472726903520684,-0.53879790933991589,-0.55384537593108696,0,0,0,0
912.85439959999997,0.038684454822189053,0.058380732119553982,-0.54315411997808727,-0.48750023848848167,0,0,0,0
912.87149999999997,0.038677819179187521,-0.06786269208933754,-0.54695748077290551,-0.42116013285690884,0,0,0,0
912.88749059999998,0.038659759490812094,0.072286098548556221,-0.5507287570225331,-0.48813183067119598,0,0,0,0
912.90466170000002,0.039809823395582276,0.2125260741217069,-0.55505813960011285,-0.55510725510737668,0,0,0,0
912.92114230000004,0.042129556126931367,0.35305817339531681,-0.55994569165110109,-0.622094592729453,0,0,0,0
912.93740130000003,0.044581578037078295,0.22766751138587377,-0.56487080634881792,-0.55579287888414386,0,0,0,0
912.95289869999999,0.045990251637504677,0.10264521006790231,-0.56924348424318161,-0.48950931317829549,0,0,0,0
912.9693767,0.046357883811422945,-0.022204081480485468,-0.57306383916743919,-0.42323429642049698,0,0,0,0
912.98645759999999,0.045685152241854605,-0.14707598224257715,-0.57633190455066208,-0.35695814223577083,0,0,0,0
913.0026067,0.045011582796758057,-0.0057691865729058867,-0.57956836528876565,-0.42398051695017208,0,0,0,0
913.01965399999995,0.045515349222172208,0.13551675266287525,-0.58336333683751029,-0.49100202988091551,0,0,0,0
913.03576429999998,0.047197064102558042,0.27698309976007829,-0.58771684366399279,-0.55803077057982053,0,0,0,0
913.05169530000001,0.049018695194619842,0.15248521415268781,-0.59210826236347491,-0.49177137983665159,0,0,0,0
913.06863129999999,0.049803962017528285,0.028239032273031782,-0.59594757496547213,-0.42552448585470437,0,0,0,0
913.08546000000001,0.049554199983602006,-0.095950588468544484,-0.59923484778566838,-0.35928039231474523,0,0,0,0
913.10134660000006,0.049309359133856132,0.04605623959681928,-0.60249077822517816,-0.42633340545953197,0,0,0,0
913.11740840000004,0.050247974991290766,0.18811574172649392,-0.60630548632238646,-0.49338848732907947,0,0,0,0
913.13417690000006,0.05133112501628246,0.064125858457206114,-0.6101583192056208,-0.42715345698284757,0,0,0,0
913.15056830000003,0.051381602713281321,-0.059750921420213703,-0.61345922222464133,-0.36092405635860647,0,0,0,0
913.16673519999995,0.0503995887997968,-0.18370962200732102,-0.61620820425172163,-0.29469054569547926,0,0,0,0
913.18283940000003,0.049423843444451117,-0.041617085551465136,-0.61892590299479189,-0.36174704473872438,0,0,0,0
913.19923029999995,0.049631783405484797,0.10040380322701833,-0.62220238916030779,-0.4288006746079549,0,0,0,0
913.21590360000005,0.051023598169708854,0.24255437985275358,-0.62603767006885636,-0.49585942534487693,0,0,0,0
913.23223180000002,0.052561065749463488,0.11874926183617396,-0.62991112366826141,-0.42963272619935067,0,0,0,0
913.24859609999999,0.053067737127909104,-0.0048565783991093231,-0.63323273368093713,-0.36341597402472231,0,0,0,0
913.26500699999997,0.052544512117749492,-0.12845793900124286,-0.63600254497874453,-0.29719942730159365,0,0,0,0
913.28230589999998,0.052030724688187091,0.014039525939805671,-0.63874121836365538,-0.36427371219707128,0,0,0,0
913.2988325,0.052704304960500797,0.15654419287582688,-0.6420388396439991,-0.4313482552172232,0,0,0,0
913.31497730000001,0.054566099298349581,0.29925729620055491,-0.64589544187918735,-0.49843095160304568,0,0,0,0
913.33141309999996,0.056578788484748573,0.17615880504066694,-0.6497904491877956,-0.43223690021587241,0,0,0,0
913.34772620000001,0.057566926518808147,0.053350984840053801,-0.65313390311308595,-0.36605744214683733,0,0,0,0
913.36434459999998,0.057532177557325648,-0.069360285618435491,-0.65592588725548118,-0.29988283061495324,0,0,0,0
913.38147549999996,0.056474587403446526,-0.19216924956264264,-0.65816640375548763,-0.23370327473836075,0,0,0,0
913.39793740000005,0.055432388047831738,-0.049043505860422505,-0.66037605022737544,-0.30080452524045048,0,0,0,0
913.41496510000002,0.055582444893559492,0.094000557260169801,-0.66314485584658156,-0.36790256958215317,0,0,0,0
913.43132300000002,0.056924863778692568,0.23716427044862942,-0.66647282450241874,-0.43500523975899585,0,0,0,0
913.4473729,0.058421740864681257,0.11446578219684486,-0.66983936310245173,-0.3688305306325439,0,0,0,0
913.4639383,0.058897020224774221,-0.0080392998064657498,-0.67265449057816729,-0.30266555780263082,0,0,0,0
913.48060229999999,0.058351555613270489,-0.13054503562981054,-0.67491824985372295,-0.23650053136956353,0,0,0,0
913.49713380000003,0.057824242083608195,0.012941924431856466,-0.67715126634995448,-0.3036176315243419,0,0,0,0
913.51349660000005,0.0584925354836765,0.15643440130500569,-0.67994358735499971,-0.3707349159319544,0,0,0,0
913.5300234,0.059317679151195637,0.033973313741340327,-0.68277458990950712,-0.30457187015316178,0,0,0,0
913.54597779999995,0.05912270556316053,-0.088421830658404532,-0.68505425346858262,-0.23841213632747379,0,0,0,0
913.56197420000001,0.057907406325375547,-0.21094504776698264,-0.68678256733042975,-0.1722459122717834,0,0,0,0
913.57803420000005,0.056709663723550824,-0.067587929655069712,-0.68848010838413798,-0.2393570441660996,0,0,0,0
