Time,Theta
0.0083333333333333332,0.17465456354098591
0.016666666666666666,0.175547250569318
0.025000000000000001,0.17676907272012621
0.033333333333333333,0.17716299418296155
0.041666666666666664,0.1767297820128573
0.049999999999999996,0.17546877815944151
0.058333333333333327,0.17337789955491298
0.066666666666666666,0.17045363806730204
0.074999999999999997,0.16771500922522692
0.083333333333333329,0.16631857168602468
0.09166666666666666,0.16523792879605295
0.099999999999999992,0.16331012602864395
0.10833333333333332,0.16053195636096007
0.11666666666666665,0.1568987662169915
0.12499999999999999,0.15343117445465818
0.13333333333333333,0.15128783911577309
0.14166666666666666,0.15046602234883547
0.14999999999999999,0.14993692573727216
0.15833333333333333,0.14853497077813557
0.16666666666666666,0.14625787328117323
0.17499999999999999,0.14310187106892699
0.18333333333333332,0.14009095492107895
0.19166666666666665,0.13838724050339815
0.19999999999999998,0.13695859183496797
0.20833333333333331,0.13463555035091701
0.21666666666666665,0.13141430683202607
0.22499999999999998,0.12832076045242827
0.23333333333333331,0.12651912868599705
0.24166666666666664,0.12600700626005396
0.24999999999999997,0.12575177614160277
0.2583333333333333,0.12458355689517714
0.26666666666666666,0.12250049423078294
0.27500000000000002,0.11949921214078654
0.28333333333333338,0.11660784821515939
0.29166666666666674,0.11499295869832928
0.3000000000000001,0.11361878032164419
0.30833333333333346,0.11131179425033967
0.31666666666666682,0.10806828265022379
0.32500000000000018,0.10491763699680132
0.33333333333333354,0.10302785112080999
0.3416666666666669,0.10239632402233151
0.35000000000000026,0.10198689787272135
0.35833333333333361,0.1006256584318144
0.36666666666666697,0.098310470477953937
0.37500000000000033,0.095037640418436278
0.38333333333333369,0.091838193173889304
0.39166666666666705,0.089881876698197735
0.40000000000000041,0.089165955239517244
0.40833333333333377,0.088652559961002173
0.41666666666666713,0.087165831960789614
0.42500000000000049,0.084703456451191372
0.43333333333333385,0.081261542165499953
0.44166666666666721,0.077872396653785023
0.45000000000000057,0.075707168042324705
0.45833333333333393,0.074762785304523613
0.46666666666666728,0.073999568525072598
0.47500000000000064,0.072239610434801774
0.483333333333334,0.069480187975754476
0.49166666666666736,0.065716984567560879
0.50000000000000067,0.061983274945236734
0.50833333333333397,0.059451274572626382
0.51666666666666727,0.058117339388538622
0.52500000000000058,0.056939828497888353
0.53333333333333388,0.054738644190660934
0.54166666666666718,0.051510408857591027
0.55000000000000049,0.04829031764933215
0.55833333333333379,0.04625245607417907
0.5666666666666671,0.045393823302282615
0.5750000000000004,0.044672615759385192
0.5833333333333337,0.042908520248790598
0.59166666666666701,0.040098880281585238
0.60000000000000031,0.03728022510914103
0.60833333333333361,0.035627932384595724
0.61666666666666692,0.035139518976882549
0.62500000000000022,0.034773190452116798
0.63333333333333353,0.033348600715308367
0.64166666666666683,0.03086364452594292
0.65000000000000013,0.027314581398050864
0.65833333333333344,0.023737381451690159
0.66666666666666674,0.02130688198922415
0.67500000000000004,0.020019425517150483
0.68333333333333335,0.018831506468326844
0.69166666666666665,0.016560952893891492
0.69999999999999996,0.01320440493255514
0.70833333333333326,0.009798532756694173
0.71666666666666656,0.0075187890187073288
0.72499999999999987,0.0063616861119695578
0.73333333333333317,0.0052836634633465036
0.74166666666666647,0.0031024782876857052
0.74999999999999978,-0.00018504752352463026
0.75833333333333308,-0.0035419841245053463
0.76666666666666639,-0.0057927203502902425
0.77499999999999969,-0.0069407471922029139
0.78333333333333299,-0.0069878996836491708
0.7916666666666663,-0.0069760829360779849
0.7999999999999996,-0.0080858905649590935
0.8083333333333329,-0.010318868070280216
0.81666666666666621,-0.012636544957627125
0.82499999999999951,-0.01386184323105335
0.83333333333333282,-0.013996726991491446
0.84166666666666612,-0.01408314396297383
0.84999999999999942,-0.015301726906140452
0.85833333333333273,-0.017654168892754129
0.86666666666666603,-0.020102287195591272
0.87499999999999933,-0.021469359671112114
0.88333333333333264,-0.021757580776937225
0.89166666666666594,-0.022008960740352673
0.89999999999999925,-0.023404175804417629
0.90833333333333255,-0.025945161311187546
0.91666666666666585,-0.028594216676849575
0.92499999999999916,-0.030175196880994206
0.93333333333333246,-0.030690643150365259
0.94166666666666576,-0.031182625045405751
0.94999999999999907,-0.03283183433134839
0.95833333333333237,-0.035640552340953861
0.96666666666666567,-0.038571814948156459
0.97499999999999898,-0.040450350805177934
0.98333333333333228,-0.041279186864284383
0.99166666666666559,-0.041059717519375316
0.99999999999999889,-0.040832421200000003
1.0083333333333322,-0.04177640511673672
1.0166666666666655,-0.043892915480802937
1.0249999999999988,-0.0461443682075897
1.0333333333333321,-0.047354927441905628
1.0416666666666654,-0.047526592423041372
1.0499999999999987,-0.047700089132276954
1.058333333333332,-0.049054699644299454
1.0666666666666653,-0.051592241717795292
1.0749999999999986,-0.054276178080257892
1.0833333333333319,-0.055931872674113745
1.0916666666666652,-0.056562041021322118
1.0999999999999985,-0.056167780341933392
1.1083333333333318,-0.055788378263334715
1.1166666666666651,-0.056601680521215295
1.1249999999999984,-0.058608725531988738
1.1333333333333317,-0.060772678914831027
1.1416666666666651,-0.061918657839433879
1.1499999999999984,-0.062048582524708948
1.1583333333333317,-0.062202124552402253
1.166666666666665,-0.063557402655135403
1.1749999999999983,-0.065077020427014992
1.1833333333333316,-0.065585528012904709
1.1916666666666649,-0.065083835929872533
1.1999999999999982,-0.064610386520927585
1.2083333333333315,-0.065342126112758761
1.2166666666666648,-0.067279967274666688
1.2249999999999981,-0.0693876384697132
1.2333333333333314,-0.070490952656242528
1.2416666666666647,-0.070591774461076881
1.249999999999998,-0.069690365068337798
1.2583333333333313,-0.068824149862048795
1.2666666666666646,-0.0691690760509764
1.2749999999999979,-0.070725515653653578
1.2833333333333312,-0.072456946583202536
1.2916666666666645,-0.073188935659567023
1.2999999999999978,-0.072922756224369528
1.3083333333333311,-0.072696543573721933
1.3166666666666644,-0.073686831881235162
1.3249999999999977,-0.074856562479837283
1.333333333333331,-0.07503073054143039
1.3416666666666643,-0.074209715301107274
1.3499999999999976,-0.07343065994000797
1.358333333333331,-0.07386917845578099
1.3666666666666643,-0.075525768841154126
1.3749999999999976,-0.077364479351136994
1.3833333333333309,-0.078211545179828368
1.3916666666666642,-0.078068429298395581
1.3999999999999975,-0.076935000398171888
1.4083333333333308,-0.07584765009157865
1.4166666666666641,-0.07598126492083386
1.4249999999999974,-0.077335922807794583
1.4333333333333307,-0.078875416834506565
1.441666666666664,-0.079425711703331223
1.4499999999999973,-0.078987793496759856
1.4583333333333306,-0.077561055395525505
1.4666666666666639,-0.076181365048275634
1.4749999999999972,-0.076023126298688043
1.4833333333333305,-0.07708601671440389
1.4916666666666638,-0.07833339575538005
1.4999999999999971,-0.078590744011092284
1.5083333333333304,-0.077858575226967069
1.5166666666666637,-0.077173824513379369
1.524999999999997,-0.077711849166280003
1.5333333333333303,-0.078435331709600292
1.5416666666666636,-0.078169002535268234
1.5499999999999969,-0.076912531816666713
1.5583333333333302,-0.075702119160736756
1.5666666666666635,-0.075712478814274856
1.5749999999999968,-0.076943519599683083
1.5833333333333302,-0.07835882372011449
1.5916666666666635,-0.078784118653170643
1.5999999999999968,-0.078220188741438351
1.6083333333333301,-0.076666224614464498
1.6166666666666634,-0.075157980226664561
1.6249999999999967,-0.074869773310501583
1.63333333333333,-0.075801102616563421
1.6416666666666633,-0.076915021515264484
1.6499999999999966,-0.077036662519495133
1.6583333333333299,-0.076166320644460217
1.6666666666666632,-0.074302695207542457
1.6749999999999965,-0.07248127760037798
1.6833333333333298,-0.071876188906130109
1.6916666666666631,-0.07248648964656669
1.6999999999999964,-0.073274476965281735
1.7083333333333297,-0.073064425963801277
1.716666666666663,-0.071856099313812552
1.7249999999999963,-0.070686246699273939
1.7333333333333296,-0.070730167014941114
1.7416666666666629,-0.071987815509813327
1.7499999999999962,-0.073422358305076332
1.7583333333333295,-0.073859027691243639
1.7666666666666628,-0.073298623912454633
1.7749999999999961,-0.07174034731676554
1.7833333333333294,-0.070220407345196717
1.7916666666666627,-0.069913615340315038
1.799999999999996,-0.070819441842485287
1.8083333333333294,-0.071900453299280256
1.8166666666666627,-0.071981212127536595
1.824999999999996,-0.07106194743819827
1.8333333333333293,-0.069141286445853892
1.8416666666666626,-0.067255100860539943
1.8499999999999959,-0.066577934060532459
1.8583333333333292,-0.067108740976625281
1.8666666666666625,-0.067809240493639067
1.8749999999999958,-0.06750303936212336
1.8833333333333291,-0.066189748715940827
1.8916666666666624,-0.064906447229612196
1.8999999999999957,-0.064828819285058875
1.908333333333329,-0.064917533278683298
1.9166666666666623,-0.063995032348393863
1.9249999999999956,-0.062059947827889005
1.9333333333333289,-0.060148720341226265
1.9416666666666622,-0.059436502292682193
1.9499999999999955,-0.059922191191983498
1.9583333333333288,-0.060566874709888391
1.9666666666666621,-0.060193425790157302
1.9749999999999954,-0.058801352430284788
1.9833333333333287,-0.057428194802581899
1.991666666666662,-0.057250153575804298
1.9999999999999953,-0.057227173221215108
2.0083333333333289,-0.056180871352252595
2.0166666666666622,-0.054109693841249681
2.0249999999999955,-0.052050459433358932
2.0333333333333288,-0.051178746464063327
2.0416666666666621,-0.051493217018020024
2.0499999999999954,-0.05195412923509056
2.0583333333333287,-0.051383406309999227
2.066666666666662,-0.049780250694041753
2.0749999999999953,-0.048182497165743542
2.0833333333333286,-0.04776670395446983
2.0916666666666619,-0.048532175221483106
2.0999999999999952,-0.049439634509632707
2.1083333333333285,-0.049311483563292173
2.1166666666666618,-0.048147622367965486
2.1249999999999951,-0.045946324343353002
2.1333333333333284,-0.043744731970233541
2.1416666666666617,-0.042718779732069646
2.149999999999995,-0.042866897208304597
2.1583333333333283,-0.04314859435543579
2.1666666666666616,-0.042384942382692838
2.1749999999999949,-0.040574850104529762
2.1833333333333282,-0.038756365523031501
2.1916666666666615,-0.038106301351471195
2.1999999999999948,-0.038623618760787043
2.2083333333333282,-0.039268147899441552
2.2166666666666615,-0.038861271836873677
2.2249999999999948,-0.037402459145281626
2.2333333333333281,-0.035930459031394607
2.2416666666666614,-0.035622761731927861
2.2499999999999947,-0.03647881881525921
2.258333333333328,-0.037458854018726097
2.2666666666666613,-0.037384649867686748
2.2749999999999946,-0.036256193166874603
2.2833333333333279,-0.034071832849787674
2.2916666666666612,-0.031869355520550764
2.2999999999999945,-0.030825344400949986
2.3083333333333278,-0.030938182833713492
2.3166666666666611,-0.031166778157684843
2.3249999999999944,-0.030331498199543328
2.3333333333333277,-0.028431155103632918
2.341666666666661,-0.026504202756764166
2.3499999999999943,-0.025727869456165002
2.3583333333333276,-0.026100919509329135
2.3666666666666609,-0.026582469387924516
2.3749999999999942,-0.025993077307320551
2.3833333333333275,-0.02433193939202262
2.3916666666666608,-0.022638017604082496
2.3999999999999941,-0.022089031272988214
2.4083333333333274,-0.022684072564887563
2.4166666666666607,-0.023382481468089727
2.424999999999994,-0.023005027473366489
2.4333333333333274,-0.021551234636824387
2.4416666666666607,-0.020060465180111776
2.449999999999994,-0.019710825790704153
2.4583333333333273,-0.02050169887957691
2.4666666666666606,-0.021392655603983426
2.4749999999999939,-0.021204690456197339
2.4833333333333272,-0.019937618753760444
2.4916666666666605,-0.018631131084963979
2.4999999999999938,-0.018463652752035774
2.5083333333333271,-0.018393290485759353
2.5166666666666604,-0.017239524259583677
2.5249999999999937,-0.015000697053990561
2.533333333333327,-0.012715138246738289
2.5416666666666603,-0.011559935552529915
2.5499999999999936,-0.011533275897256312
2.5583333333333269,-0.011593342206622261
2.5666666666666602,-0.010559666855653203
2.5749999999999935,-0.0084307869011297654
2.5833333333333268,-0.0062453088791570282
2.5916666666666601,-0.0051805669111946208
2.5999999999999934,-0.0052348710689883345
2.6083333333333267,-0.0053664575005248401
2.61666666666666,-0.0043948931795275651
2.6249999999999933,-0.0023188187920662687
2.6333333333333266,-0.00017697460360924965
2.6416666666666599,0.00085320375342434502
2.6499999999999932,0.0007733642748509736
2.6583333333333266,0.00062525019669116774
2.6666666666666599,0.0015892873450937023
2.6749999999999932,0.0036668144953965072
2.6833333333333265,0.0058190858217033745
2.6916666666666598,0.0068686968743119142
2.6999999999999931,0.006817334272521053
2.7083333333333264,0.0056650242818814716
2.7166666666666597,0.004451875845268319
2.724999999999993,0.0043566999129317626
2.7333333333333263,0.0053792502994158666
2.7416666666666596,0.0064792101416612366
2.7499999999999929,0.0064776044072320186
2.7583333333333262,0.0053745344621729399
2.7666666666666595,0.0042101857477249236
2.7749999999999928,0.0041634442225271023
2.7833333333333261,0.0052341359336607936
2.7916666666666594,0.0063820151365107441
2.7999999999999927,0.0064281777323267411
2.808333333333326,0.0053727971407653572
2.8166666666666593,0.004256130657016452
2.8249999999999926,0.004257135542970485
2.8333333333333259,0.0053757090740875896
2.8416666666666592,0.0065716778526974653
2.8499999999999925,0.0066662113277071383
2.8583333333333258,0.0056595558990144958
2.8666666666666591,0.0045920400183947913
2.8749999999999925,0.0046426923760182932
2.8833333333333258,0.0058114842675022083
2.8916666666666591,0.0070583198999384696
2.8999999999999924,0.0072044490871917216
2.9083333333333257,0.0062501961605592312
2.916666666666659,0.0052359636167487534
2.9249999999999923,0.0053408551602316641
2.9333333333333256,0.0065649228329938821
2.9416666666666589,0.0078681583579848953
2.9499999999999922,0.0080719037088019304
2.9583333333333255,0.0071765704077063792
2.9666666666666588,0.0062226412438701828
2.9749999999999921,0.0063893017114696141
2.9833333333333254,0.0076766955939289215
2.9916666666666587,0.0090449176680837892
2.999999999999992,0.0093154200192602631
3.0083333333333253,0.0084887154643551663
3.0166666666666586,0.0076053765037957192
3.0249999999999919,0.007844680095330795
3.0333333333333252,0.0092068775697219298
3.0416666666666585,0.010652189394610396
3.0499999999999918,0.011002203644141418
3.0583333333333251,0.01025755420155562
3.0666666666666584,0.00945891559350036
3.0749999999999917,0.0097856683431509512
3.083333333333325,0.011238192712218145
3.0916666666666583,0.0127768667828554
3.0999999999999917,0.013223451045964422
3.108333333333325,0.012578727060295248
3.1166666666666583,0.011883486039965686
3.1249999999999916,0.012317225709190393
3.1333333333333249,0.013880483234919994
3.1416666666666582,0.015533838756492738
3.1499999999999915,0.016099276053295451
3.1583333333333248,0.015577759404685415
3.1666666666666581,0.015010212597185307
3.1749999999999914,0.015576264017769582
3.1833333333333247,0.017276643583773121
3.191666666666658,0.019072195231884748
3.1999999999999913,0.019785197134269929
3.2083333333333246,0.019416841917417688
3.2166666666666579,0.019008200869812468
3.2249999999999912,0.019739043176206075
3.2333333333333245,0.020568832676094013
3.2416666666666578,0.0203184489512582
3.2499999999999911,0.018987612124688066
3.2583333333333244,0.017615939992623668
3.2666666666666577,0.017381786573580801
3.274999999999991,0.018284702836764199
3.2833333333333243,0.019284373445629392
3.2916666666666576,0.019201895874096254
3.2999999999999909,0.018037247293248283
3.3083333333333242,0.016830321363423755
3.3166666666666575,0.016759740424960971
3.3249999999999909,0.017825295948035814
3.3333333333333242,0.018986903261957001
3.3416666666666575,0.019065893386364718
3.3499999999999908,0.018062490172727163
3.3583333333333241,0.017016831826574295
3.3666666666666574,0.017107779194440856
3.3749999999999907,0.018335361442978738
3.383333333333324,0.019659744595712195
3.3916666666666573,0.019902520001306549
3.3999999999999906,0.019064161922861891
3.4083333333333239,0.01818503548397811
3.4166666666666572,0.018444222581339296
3.4249999999999905,0.019841999376330965
3.4333333333333238,0.021338817515996436
3.4416666666666571,0.021756572152325904
3.4499999999999904,0.021096006020972537
3.4583333333333237,0.020397702578677603
3.466666666666657,0.02084095442521491
3.4749999999999903,0.022426306477629741
3.4833333333333236,0.024114551631533955
3.4916666666666569,0.024727956023374471
3.4999999999999902,0.024267564414153661
3.5083333333333235,0.022732772692043848
3.5166666666666568,0.021162785175737921
3.5249999999999901,0.020735555664441269
3.5333333333333234,0.021450353471489787
3.5416666666666567,0.02226666175260536
3.5499999999999901,0.022005390199246508
3.5583333333333234,0.020666241531310074
3.5666666666666567,0.019288777191460601
3.57499999999999,0.019051297113080765
3.5833333333333233,0.019953347963978341
3.5916666666666566,0.020954651622959074
3.5999999999999899,0.020876354136431841
3.6083333333333232,0.019718438779844853
3.6166666666666565,0.01852076799364916
3.6249999999999898,0.018461934229267014
3.6333333333333231,0.019541746357083032
3.6416666666666564,0.020720179106904341
3.6499999999999897,0.020818635638131012
3.658333333333323,0.019837369704055419
3.6666666666666563,0.018816509571852675
3.6749999999999896,0.018934906321036983
3.6833333333333229,0.020192629108958408
3.6916666666666562,0.021549930949907179
3.6999999999999895,0.021828505396156855
3.7083333333333228,0.021028882127015185
3.7166666666666561,0.020191434620675779
3.7249999999999894,0.020495251603160115
3.7333333333333227,0.021940673763342008
3.741666666666656,0.023488274865069277
3.7499999999999893,0.023960091405975409
3.7583333333333226,0.023356950310234281
3.7666666666666559,0.021678029043371839
3.7749999999999893,0.019962342970926306
3.7833333333333226,0.019387662229828049
3.7916666666666559,0.019953038977058999
3.7999999999999892,0.020617697897105804
3.8083333333333225,0.020202274038144639
3.8166666666666558,0.018706235089956575
3.8249999999999891,0.017168954491997228
3.8333333333333224,0.01676854798428903
3.8416666666666557,0.017504321718495152
3.849999999999989,0.018335696210817511
3.8583333333333223,0.018083493620596788
3.8666666666666556,0.016747432247177854
3.8749999999999889,0.015367174782769437
3.8833333333333222,0.015121117032310276
3.8916666666666555,0.01600879163546793
3.8999999999999888,0.016989813774524007
3.9083333333333221,0.016885196159608765
3.9166666666666554,0.015694882613862451
3.9249999999999887,0.014458779739569345
3.933333333333322,0.014355520623456741
3.9416666666666553,0.015384848317535843
3.9499999999999886,0.016506576268130558
3.9583333333333219,0.01654191602516835
3.9666666666666552,0.015491024757298138
3.9749999999999885,0.014394024849709426
3.9833333333333218,0.014429760346170072
3.9916666666666551,0.015598179406753548
3.9999999999999885,0.016859305599443309
4.0083333333333222,0.017034566406431553
4.0166666666666559,0.016124332286898031
4.0249999999999897,0.015168926036991215
4.0333333333333234,0.015347388170485553
4.0416666666666572,0.016659877197912312
4.0499999999999909,0.01806665031083483
4.0583333333333247,0.018389380804701438
4.0666666666666584,0.017628664485342768
4.0749999999999922,0.016825018402706615
4.0833333333333259,0.017157672997630217
4.0916666666666597,0.018627013134749636
4.0999999999999934,0.020193568836637005
