Time,Theta,ThetaDot,X,XDot,Out1,Out2,Out3,Out4
1648.3926157999999,0.17814761439527091,0.031755427334017212,-5.5486055948730016e-06,-0.0014205862738019741,0,0,0,0
1648.4083509,0.17904741998454032,0.1943821881804477,-0.00028254118639372579,-0.06930044359362017,0,0,0,0
1648.4248599,0.18028142697035529,0.09565214505140078,-0.00060603839603567684,-0.0042773752763583068,0,0,0,0
1648.4408498,0.18069348742910732,-0.0029022455496938073,-0.00038772181707935713,0.060735839271127336,0,0,0,0
1648.4571301000001,0.18028440058019907,-0.10145110294418021,0.00037236385744094839,0.1257487822133207,0,0,0,0
1648.4735072000001,0.17905354807915311,-0.20016452624660358,0.0016742538011851099,0.19077103496006995,0,0,0,0
1648.4904054000001,0.17699889408529856,-0.29921261961835199,0.0035180629446122285,0.25581215153429071,0,0,0,0
1648.5070327000001,0.17411698513882704,-0.39876551129289362,0.0059039856390430629,0.32088163064885744,0,0,0,0
1648.5236984000001,0.17142612158940931,-0.23699596314889643,0.0083129832062099635,0.25303878875358632,0,0,0,0
1648.5400866,0.17008205358018272,-0.075521206407482777,0.010156647491954182,0.18520143841618397,0,0,0,0
1648.5559687,0.16905924196254954,-0.17628542222051599,0.011954365679378924,0.25032293642453152,0,0,0,0
1648.5724001000001,0.16719570887367405,-0.27734125900212142,0.014294820278303521,0.31546080038890068,0,0,0,0
1648.5889301,0.16448834949341598,-0.37886142313749605,0.017178185245863072,0.38062463669621699,0,0,0,0
1648.605517,0.16093261986248814,-0.4810185971090733,0.020604714270233658,0.44582396290097276,0,0,0,0
1648.6215026,0.15754846433752481,-0.32127795981029661,0.024055199332864083,0.37805887498631358,0,0,0,0
1648.6383398,0.15549376953444749,-0.16194131825636449,0.026941011727947727,0.31030244411011654,0,0,0,0
1648.6550508,0.15476592330031647,-0.002815205505269822,0.029262208414314372,0.24255070862132644,0,0,0,0
1648.6719682,0.15433706746625722,-0.10661106278149338,0.031538414119002822,0.30781867205723085,0,0,0,0
1648.6888406999999,0.1530427029289112,-0.21057723304748846,0.034358549851678064,0.37309613445904771,0,0,0,0
1648.7053218999999,0.15088072120514029,-0.31489014303745405,0.037722732953663851,0.4383928605750505,0,0,0,0
1648.7212648,0.1478475438680133,-0.41972614108228073,0.041631161864490042,0.50371853764786534,0,0,0,0
1648.7379458,0.14496649731609518,-0.26193539512370945,0.045564375885429415,0.43602361389903277,0,0,0,0
1648.7538480999999,0.14339891791301668,-0.10448283946607548,0.048933500523293726,0.36833686106250574,0,0,0,0
1648.7705693,0.1421137369871949,-0.21063755170698495,0.052258368705817237,0.43372030566502562,0,0,0,0
1648.7873652000001,0.13994271253885632,-0.31713649195535187,0.05612816630699502,0.49912273408997965,0,0,0,0
1648.8041184000001,0.13688227752544957,-0.42415844223899429,0.060543089660400201,0.56455388959552477,0,0,0,0
1648.820929,0.1339576705657802,-0.26806604326446526,0.064983518391773146,0.49692407649948239,0,0,0,0
1648.837495,0.13233232504876555,-0.11232515738280183,0.06886040481588665,0.42930350404416084,0,0,0,0
1648.8532087000001,0.13097317420517329,-0.22068817575018695,0.072693745441816074,0.49479382651052206,0,0,0,0
1648.8696841999999,0.12870972391491245,-0.32940949916442808,0.077072908479173571,0.56030373919806231,0,0,0,0
1648.8861578000001,0.12553828078431997,-0.43867021233385844,0.081998095436022017,0.62584301348442917,0,0,0,0
1648.9026787,0.12248577497791367,-0.28436630297796089,0.086949539848941201,0.55828338566424318,0,0,0,0
1648.9189999,0.12071752117463502,-0.13044071810913538,0.091338032960639332,0.49073449290321658,0,0,0,0
1648.9353719000001,0.11919840503410474,-0.24111357249755094,0.095683733610423899,0.55633646352725574,0,0,0,0
1648.9516885,0.11675562213413734,-0.35217551547563292,0.10057619278419536,0.621959487649557,0,0,0,0
1648.9675573,0.11338521379692598,-0.46380985692836474,0.10601562418226676,0.68761333199579633,0,0,0,0
1648.9844943999999,0.11011562212898811,-0.31145618944271458,0.11148212511766219,0.6201318986124682,0,0,0,0
1649.0013409000001,0.10811386578369726,-0.15952287876183247,0.11638633478359972,0.55266328191499836,0,0,0,0
1649.0183045000001,0.10737721507186823,-0.0078116969088289859,0.1207283371977023,0.48520158375153444,0,0,0,0
1649.0353462999999,0.10687002555526116,-0.12100399359658989,0.12502840604008916,0.55092339692308212,0,0,0,0
1649.0526454000001,0.10541896269127043,-0.23438396382923996,0.12987618910989263,0.61665527907992879,0,0,0,0
1649.069045,0.10302173493430017,-0.34813783131759768,0.13527180906795377,0.6824071338561124,0,0,0,0
1649.0856289000001,0.099674499990555651,-0.46245150589159167,0.14121547064737056,0.74818873594698343,0,0,0,0
1649.1014783000001,0.096407589695757967,-0.31231089693944525,0.14718711462389689,0.68079665733678452,0,0,0,0
1649.117612,0.094390036774605099,-0.16259965117348468,0.15259721716965671,0.61341864381411304,0,0,0,0
1649.1344523,0.09361903985082734,-0.013118690433471502,0.15744587080901726,0.54604831376188667,0,0,0,0
1649.1513841999999,0.093057167075547426,-0.12899001194857806,0.16225349680980819,0.61189847848418089,0,0,0,0
1649.1681226000001,0.091529055259568795,-0.24505979900793765,0.16760990829667125,0.67775913427982415,0,0,0,0
1649.1843876,0.089032313568023116,-0.36151665865242599,0.17351523135364869,0.7436401579353461,0,0,0,0
1649.2006604999999,0.085562980867554428,-0.47854879729761768,0.17996967384241144,0.809551277643758,0,0,0,0
1649.2168273,0.082152861567553206,-0.33073470344820466,0.18645304650215852,0.74225539482551262,0,0,0,0
1649.2330483000001,0.079972582514152374,-0.18338304032481223,0.19237568782992137,0.67497566811441367,0,0,0,0
1649.2492554999999,0.079019068658623362,-0.03629424078031665,0.19773770607443955,0.60770527843521349,0,0,0,0
1649.2651889000001,0.078253042227718408,-0.15499447536055763,0.20305966587949925,0.67369037209467619,0,0,0,0
1649.2819308999999,0.076497050651416307,-0.27393244810511025,0.20893154284519594,0.73968780509514287,0,0,0,0
1649.2985512,0.073748367032939618,-0.39329899640078447,0.21535347815756764,0.80570737208245069,0,0,0,0
1649.3147208,0.070002676090988508,-0.51328442027827326,0.22232569396659699,0.87175868423006586,0,0,0,0
1649.3304880999999,0.066292902946591334,-0.36808985733238675,0.22932789118992841,0.80457337454454725,0,0,0,0
1649.3473765000001,0.063790902203154157,-0.22341875627404503,0.23577029168561786,0.73740752048834834,0,0,0,0
1649.3639651000001,0.062493090438792503,-0.079071475182847947,0.24165302962074323,0.67025389343542074,0,0,0,0
1649.3801576000001,0.06135821633985885,-0.20095068954280979,0.24749681441320276,0.7363897214934938,0,0,0,0
1649.3967241,0.059206616393934167,-0.32313694576552859,0.2538917851761327,0.80254111205798562,0,0,0,0
1649.4131875,0.056034977847635128,-0.4458231789034709,0.26083810933318946,0.86871769149586375,0,0,0,0
1649.4299980999999,0.052878266895239154,-0.30294734996511735,0.26781534727776862,0.80162990953224611,0,0,0,0
1649.4461309999999,0.050910330257486765,-0.16051169145634389,0.27423359283172111,0.73455933769342785,0,0,0,0
1649.4630374000001,0.050128281798967542,-0.018315817579893021,0.28009295944514567,0.66749825161020793,0,0,0,0
1649.4800454000001,0.049490716869506138,-0.14247892552422303,0.28591420241988591,0.73374119482315292,0,0,0,0
1649.4967862999999,0.047817767056231211,-0.26685379773199225,0.29228750447054608,0.79999469563943282,0,0,0,0
1649.5123834999999,0.045106906521327192,-0.39163519200542801,0.29921299119003275,0.86626835478432496,0,0,0,0
1649.5289816,0.042394537732756678,-0.25059656752255449,0.30617012717782893,0.79925937074856301,0,0,0,0
1649.5450759,0.040855903924222801,-0.10992872789287043,0.31256891914097512,0.73226540875310209,0,0,0,0
1649.5617545,0.039447967041458365,-0.23589150175234808,0.31893021374248803,0.79859285837061422,0,0,0,0
1649.5773856999999,0.036989088627277594,-0.36220936668316112,0.32584429843347201,0.86493768897950496,0,0,0,0
1649.5946498999999,0.033475546360771186,-0.48907756055554175,0.33331135476977575,0.93130925544668985,0,0,0,0
1649.6105471000001,0.029943109370037187,-0.35012567074682993,0.34081085411716933,0.86439257267261893,0,0,0,0
1649.6276158999999,0.027566435523745759,-0.21169386893056855,0.34775280505806028,0.79749766487075235,0,0,0,0
1649.6432193999999,0.026341969965115293,-0.073582456088106984,0.35413735720609713,0.73061632160076084,0,0,0,0
1649.6601724,0.025226493931587914,-0.20220377559322728,0.36048539302144988,0.79706703162609016,0,0,0,0
1649.67643,0.023038144559741625,-0.3311234524829858,0.36738723395121281,0.86353199038715023,0,0,0,0
1649.6924927,0.019773665940087337,-0.46053835649126812,0.37484303495654508,0.93002042871870116,0,0,0,0
1649.7092124000001,0.016469710585063902,-0.32397334026009628,0.38233220543214319,0.8632089921038828,0,0,0,0
1649.7259915,0.014301748183072711,-0.18789760429808497,0.38926470276676023,0.79641880925756081,0,0,0,0
1649.7423213,0.013266479901296214,-0.052111665083123163,0.39564067087756472,0.72964133126590192,0,0,0,0
1649.7590479,0.01232062114251241,-0.1831093753894952,0.40198101022708443,0.79620140567101738,0,0,0,0
1649.7754027999999,0.010282215345110254,-0.31437248681370472,0.408876058798676,0.86277384063469009,0,0,0,0
1649.791682,0.0071482766070806855,-0.44609905114726794,0.41632595518342158,0.92936770484612619,0,0,0,0
1649.8085656999999,0.0039559093534992928,-0.31176920544966857,0.42381007631516993,0.86265616181870308,0,0,0,0
1649.8245562,0.001880955016093663,-0.17791684575146913,0.43073835745522243,0.79596600355916369,0,0,0,0
1649.8405008,0.00092021111539218397,-0.044343004560889118,0.43711094256968169,0.72928841888228446,0,0,0,0
1649.8573259,3.0377483371405277e-05,-0.17756925300926138,0.44344873887557068,0.79595021891043249,0,0,0,0
1649.8742801999999,-0.001970527538869934,-0.31104907648157309,0.45034208889214739,0.86262351898060619,0,0,0,0
1649.8903255,-0.0050853946584528947,-0.44498137658118347,0.45779112326042665,0.92931718681869802,0,0,0,0
1649.9062615,-0.0082770346212110088,-0.31285097685806135,0.46527521068986571,0.86270497107871014,0,0,0,0
1649.9221715000001,-0.010369619111975094,-0.18120555169301564,0.47220428962165761,0.79611506616427596,0,0,0,0
1649.9387896999999,-0.01136641607160908,-0.049846927791034258,0.47857851091360731,0.72953845166525322,0,0,0,0
1649.9544609,-0.012310715537114731,-0.1852760677852309,0.48491877996654315,0.79629989497175735,0,0,0,0
1649.9705042999999,-0.014384474207290568,-0.32096667110395333,0.49181543330748034,0.86307285139304912,0,0,0,0
1649.9866887000001,-0.01654903828116001,-0.19043727559970508,0.49874777648862251,0.79653394989208781,0,0,0,0
1650.0035557000001,-0.01762717612128387,-0.060210403522132881,0.50512569063523127,0.73000923959856945,0,0,0,0
1650.0200612000001,-0.017620634488849127,0.069912231491073146,0.51094925781010081,0.66348943231127777,0,0,0,0
1650.0358372000001,-0.017571076021160696,-0.066544231817984023,0.51673930431889614,0.73029709884557403,0,0,0,0
1650.0526517999999,-0.01865884916062233,-0.20308599453255921,0.52308608981951055,0.79710847117197015,0,0,0,0
1650.0685590000001,-0.020885447942790552,-0.33991346173163256,0.52998967915453277,0.86393221843637802,0,0,0,0
1650.0848647,-0.023212573314059223,-0.21058567531971831,0.53692939766026349,0.7974483964509681,0,0,0,0
1650.1018647000001,-0.024463413282366772,-0.081593153369026825,0.5433151529420942,0.73098049785441876,0,0,0,0
1650.1180182000001,-0.02463999007233195,0.047261727162116067,0.54914704120722535,0.66451915746961043,0,0,0,0
1650.1340537000001,-0.024784061446769808,-0.090448914320947676,0.55494588671391498,0.73138287936510182,0,0,0,0
1650.1501800999999,-0.026076048870902518,-0.22827892834898561,0.56130194385210863,0.79825168899453791,0,0,0,0
1650.1663739000001,-0.028517730964017995,-0.36642886157575599,0.56821528830142376,0.86513407601733072,0,0,0,0
1650.1837390999999,-0.031071341628760768,-0.23852310441336044,0.57516527597833356,0.79871563184801386,0,0,0,0
1650.1996521999999,-0.03256069433766276,-0.11099813759300431,0.58156185471723199,0.73231552414363055,0,0,0,0
1650.2153628999999,-0.032988194203197083,0.016342774428320175,0.58740514055865845,0.66592431369807759,0,0,0,0
1650.232401,-0.033395686114717119,-0.12285113833866695,0.59321595152140838,0.73285385793504021,0,0,0,0
1650.2492689999999,-0.034963632353039148,-0.26220993149331145,0.599584529701083,0.79979026047259105,0,0,0,0
1650.2652892999999,-0.03769419101471283,-0.40193418253853258,0.60651096463286613,0.86674177289580512,0,0,0,0
1650.2812581999999,-0.040550371578485775,-0.2757523588112063,0.61347465798371115,0.80040281287579884,0,0,0,0
1650.2984163000001,-0.042356898443930605,-0.15001251162741677,0.61988561760511973,0.73408546692672483,0,0,0,0
1650.3150813,-0.043116691409470491,-0.024519123218687589,0.62574398661041919,0.66778022999768194,0,0,0,0
1650.3314723000001,-0.042831039131510325,0.10092373052706394,0.63104982833071133,0.60147746883395814,0,0,0,0
1650.347796,-0.042540224851917621,-0.039921814911103568,0.63632386980992783,0.66847974582445602,0,0,0,0
1650.3640413000001,-0.043423157790634867,-0.180811801978704,0.6421562649121294,0.73548380652984646,0,0,0,0
1650.3804571999999,-0.045480994249525154,-0.32194734668484409,0.64854706031072196,0.80249777198436933,0,0,0,0
1650.3962062999999,-0.047676150087861524,-0.19716042106502221,0.6549756474250531,0.73622449351862707,0,0,0,0
1650.4121316000001,-0.048832805568317358,-0.072694990698845552,0.66085202605414473,0.66996713817771869,0,0,0,0
1650.4279690000001,-0.048952877804226115,0.051644080891845953,0.66617629125206901,0.60371605069315892,0,0,0,0
1650.4447147999999,-0.049076927304813493,-0.09028924761736018,0.67146917132704342,0.67076587513545305,0,0,0,0
1650.461517,-0.050384066249039072,-0.23233801254996136,0.67732081224556173,0.73782026410722179,0,0,0,0
1650.4784239000001,-0.052876041994652477,-0.37470313793592191,0.68373128304317443,0.80488711927187617,0,0,0,0
1650.4947110000001,-0.05551633167825426,-0.25134019238384842,0.69018003591235977,0.73867980817039003,0,0,0,0
1650.5129159000001,-0.05713032894475821,-0.12838637939431261,0.69607714786382946,0.67249298702791038,0,0,0,0
1650.5290534000001,-0.057720686134349691,-0.0056478023716585342,0.7014227519612718,0.60631698188471894,0,0,0,0
1650.5450235000001,-0.057288438403788319,0.11706973584212897,0.706216900190619,0.54014201737878487,0,0,0,0
1650.5611985,-0.056872734499909268,-0.026245295661211379,0.71098023305013469,0.6072517292347005,0,0,0,0
1650.5769158000001,-0.057651277896361347,-0.16958455981289219,0.71630281166863286,0.67436235150173462,0,0,0,0
1650.593343,-0.059625056693039261,-0.31314923065238837,0.72218467400690245,0.74148163950974499,0,0,0,0
1650.6095044000001,-0.061757261625270267,-0.19101496786121652,0.72810527906539857,0.67533272087036555,0,0,0,0
1650.6262174000001,-0.062873046978152838,-0.069196170897059928,0.73347471217761062,0.60919975591086617,0,0,0,0
1650.6425578999999,-0.062974286438863311,0.052500540890035377,0.73829306817500773,0.54307296938001848,0,0,0,0
1650.6591424000001,-0.06310053473156893,-0.091822792332672251,0.74308099299053232,0.61022614787367013,0,0,0,0
1650.6751757,-0.064429789053820283,-0.23626151542772478,0.74842853931283504,0.67738366428079322,0,0,0,0
1650.6909469,-0.065924684378908652,-0.11498182537304484,0.75381515902240304,0.61127578692755713,0,0,0,0
1650.7079991000001,-0.066409812114397504,0.0061025343197539427,0.75865092535491285,0.54517784537010539,0,0,0,0
1650.7247563000001,-0.0658860460072513,0.12718460896505268,0.76293588269349044,0.47907999780542138,0,0,0,0
1650.7417998999999,-0.065391727962246973,-0.017581405044455455,0.76719060923685678,0.54625206707718499,0,0,0,0
1650.7575941,-0.066103700221460365,-0.16235921408328421,0.77200509939419759,0.61342454630575527,0,0,0,0
1650.7738423999999,-0.068022846897272254,-0.30734990932023759,0.77737938603628742,0.68060495667313425,0,0,0,0
1650.7905384999999,-0.070112930977373797,-0.18680366958386549,0.78279297793326152,0.61453092093488115,0,0,0,0
1650.8066879999999,-0.071199810026323598,-0.066568237416617895,0.78765602173102289,0.54847278287997736,0,0,0,0
1650.8235187,-0.071285323371528486,0.053548620408382763,0.79196861157005938,0.482420711132241,0,0,0,0
1650.8398543000001,-0.070369707719314639,0.17373926691670563,0.79573075941024829,0.41636482460807572,0,0,0,0
1650.8561190999999,-0.069490306281189768,0.028249235220654589,0.79946298102959323,0.48356759686025885,0,0,0,0
1650.8726647999999,-0.069822980559818781,-0.11718906876358053,0.80375521299408847,0.55076842061277498,0,0,0,0
1650.8892424000001,-0.071368085231045653,-0.26277675731984257,0.80860746811158024,0.61797472272468879,0,0,0,0
1650.9052443,-0.073089138010388244,-0.14283551890810306,0.81349925760001363,0.55192981828601173,0,0,0,0
1650.9223493,-0.073811754693020371,-0.023135307452715623,0.8178407280397616,0.4858972915569339,0,0,0,0
1650.9391144000001,-0.073537194143904555,0.096515826422247333,0.82163194405533257,0.41986726997764484,0,0,0,0
1650.9559432000001,-0.073303522257316345,-0.049556636056635017,0.82539344774575074,0.48709507483767822,0,0,0,0
1650.9728711,-0.074287198883592212,-0.19568466836814358,0.82971518583815196,0.55432486638833933,0,0,0,0
1650.9892877,-0.075451210839311514,-0.076251886951947775,0.83407666018556648,0.48830468465201143,0,0,0,0
1651.0055827000001,-0.07562060748752987,0.043046426164848745,0.83788800022095766,0.42229142207962428,0,0,0,0
1651.0213249000001,-0.074795760482193899,0.16240199772808298,0.8411492249327448,0.35627517630177169,0,0,0,0
1651.0381084000001,-0.074013752135126412,0.016162517098391345,0.84438082354541444,0.4235098339985548,0,0,0,0
1651.0540186000001,-0.074450130798447173,-0.13004208466553621,0.84817270081886131,0.49074318622279794,0,0,0,0
1651.0702074000001,-0.076105391074792833,-0.27641278428725236,0.8525248743803906,0.55798251874279836,0,0,0,0
1651.0870081,-0.077943633045243668,-0.15738601960447696,0.8569168964210172,0.49198075280025827,0,0,0,0
1651.1039131,-0.078791153867584424,-0.038624569805564495,0.86075896410664654,0.42599269518156802,0,0,0,0
1651.1207858,-0.078649417839396302,0.080062741186409075,0.86405115309269787,0.36000845715581098,0,0,0,0
1651.1372102,-0.077518295717954891,0.19886715414550696,0.86679345646188211,0.29401812136578026,0,0,0,0
1651.1535017000001,-0.076434126052526752,0.052197360368139344,0.86950631762058417,0.36127073725430991,0,0,0,0
1651.1700556999999,-0.076571736715402017,-0.094388221057382371,0.87277960026288748,0.42852028442141521,0,0,0,0
1651.1866683000001,-0.077931210970359183,-0.24109054329487151,0.87661330705069584,0.49577398759205799,0,0,0,0
1651.2022618999999,-0.079476405392180233,-0.12238777542234378,0.88048698830471972,0.42978800662982702,0,0,0,0
1651.219511,-0.08003335938195974,-0.0038942112166744569,0.88381083551771056,0.36381285378653139,0,0,0,0
1651.2363075000001,-0.079603070142418131,0.11458118577704846,0.88658490024227266,0.29783861864933259,0,0,0,0
1651.25253,-0.078184942757243678,0.23322945150779806,0.88880915136896887,0.23185538540230816,0,0,0,0
1651.2693345,-0.076814797164028323,0.086471559591816363,0.89100400422677717,0.29911141899731858,0,0,0,0
1651.2856214000001,-0.076666982810974935,-0.060155192447399225,0.8937593005122465,0.366362704866247,0,0,0,0
1651.3025161,-0.077741191733892615,-0.20685174878321611,0.89707502883107226,0.43361645942707172,0,0,0,0
1651.3183795,-0.079000861799289362,-0.088087722652120434,0.90043072263530077,0.36762791104956782,0,0,0,0
1651.3352047000001,-0.079271564881892104,0.030522442193371881,0.90323654979073775,0.30164731719911747,0,0,0,0
1651.3514697999999,-0.078553836422254816,0.14916991847213734,0.90549253786222472,0.23566476093232303,0,0,0,0
1651.3676766000001,-0.077884566147128492,0.0022945376822500231,0.90771915439654216,0.30292636014093111,0,0,0,0
1651.3836492,-0.078439056700230839,-0.14456505528929986,0.91050627692004804,0.37018735403392927,0,0,0,0
1651.4004921999999,-0.079180084192606123,-0.025889067000432336,0.91333341649013833,0.30420342850248061,0,0,0,0
1651.4162974999999,-0.078932486851427397,0.092733295299913088,0.91561070764678421,0.23822225996413357,0,0,0,0
1651.4326000000001,-0.077695964716041843,0.21149321134801508,0.91733813461224278,0.17223393115487107,0,0,0,0
