Time,Theta
0.0083333333333333332,0.40751747624914686
0.016666666666666666,0.40884703074995155
0.025000000000000001,0.41082599972688838
0.033333333333333333,0.41239107679546405
0.041666666666666664,0.41354520315262627
0.049999999999999996,0.41429056011488508
0.058333333333333327,0.41462857298131367
0.066666666666666666,0.41455991359477395
0.074999999999999997,0.41408450159735155
0.083333333333333329,0.41320150437830971
0.09166666666666666,0.4119093357150822
0.099999999999999992,0.4102056531100457
0.10833333333333332,0.40808735382816214
0.11666666666666665,0.40555056964320463
0.12499999999999999,0.40259066030328333
0.13333333333333333,0.39920220572994158
0.14166666666666666,0.395378996969319
0.14999999999999999,0.39111402591897643
0.15833333333333333,0.38639947386009593
0.16666666666666666,0.38122669883214672
0.17499999999999999,0.37558622189594298
0.18333333333333332,0.36946771234158632
0.19166666666666665,0.36285997191035874
0.19999999999999998,0.35575091811453569
0.20833333333333331,0.34909340168290359
0.21666666666666665,0.34397393433707518
0.22499999999999998,0.3394179492400532
0.23333333333333331,0.33431899073311122
0.24166666666666664,0.32866779747481911
0.24999999999999997,0.32245411381378847
0.2583333333333333,0.3156666765053896
0.26666666666666666,0.30927490815644548
0.27500000000000002,0.30438333194593781
0.28333333333333338,0.3000019069536784
0.29166666666666674,0.2950070843897164
0.3000000000000001,0.28938988967862855
0.30833333333333346,0.28314024109158203
0.31666666666666682,0.2762469391795449
0.32500000000000018,0.26969330982304518
0.33333333333333354,0.26459920946871435
0.3416666666666669,0.25996036123794269
0.35000000000000026,0.25463733356701185
0.35833333333333361,0.24862069398016939
0.36666666666666697,0.2418997990037389
0.37500000000000033,0.23546913235582684
0.38333333333333369,0.23046060532458859
0.39166666666666705,0.22585944407742484
0.40000000000000041,0.22051465346898783
0.40833333333333377,0.21441690137828939
0.41666666666666713,0.20755556289042076
0.42500000000000049,0.20093441711341811
0.43333333333333385,0.19569551916115288
0.44166666666666721,0.19081443769793485
0.45000000000000057,0.18512948769458684
0.45833333333333393,0.17863091691120542
0.46666666666666728,0.17233006962733999
0.47500000000000064,0.16737693859304831
0.483333333333334,0.1627408673904219
0.49166666666666736,0.15725344017383075
0.50000000000000067,0.15090539867983224
0.50833333333333397,0.14471408249837242
0.51666666666666727,0.13983579972163102
0.52500000000000058,0.13523453605600255
0.53333333333333388,0.12973606308188593
0.54166666666666718,0.12333126933722227
0.55000000000000049,0.11704220965157731
0.55833333333333379,0.11203016228529189
0.5666666666666671,0.10828851315627287
0.5750000000000004,0.10477767742148744
0.5833333333333337,0.1003197199628004
0.59166666666666701,0.094907426952636612
0.60000000000000031,0.088532057481063325
0.60833333333333361,0.082220471792600947
0.61666666666666692,0.07713886130238648
0.62500000000000022,0.073280199086258963
0.63333333333333353,0.069600584559493847
0.64166666666666683,0.064917424686380967
0.65000000000000013,0.05922335266179047
0.65833333333333344,0.05354915556341551
0.66666666666666674,0.04906480397311222
0.67500000000000004,0.045763860085326666
0.68333333333333335,0.042601030533929871
0.69166666666666665,0.038392280538625735
0.69999999999999996,0.033131156364342801
0.70833333333333326,0.027850756828875146
0.71666666666666656,0.023723188868018084
0.72499999999999987,0.020742341657599039
0.73333333333333317,0.01786224252032885
0.74166666666666647,0.013898179717622207
0.74999999999999978,0.0088442248024188565
0.75833333333333308,0.003734557703319887
0.76666666666666639,-0.00025785583252202173
0.77499999999999969,-0.0031390832282493452
0.78333333333333299,-0.0059552993341058322
0.7916666666666663,-0.009891347334924647
0.7999999999999996,-0.014952967395736554
0.8083333333333329,-0.020105950753972854
0.81666666666666621,-0.0241776036271013
0.82499999999999951,-0.027174258940693388
0.83333333333333282,-0.030141891697475734
0.84166666666666612,-0.034264974875544807
0.84999999999999942,-0.039549363420431312
0.85833333333333273,-0.044961866648635489
0.86666666666666603,-0.049331237386272486
0.87499999999999933,-0.052664419977727479
0.88333333333333264,-0.054966756793084104
0.89166666666666594,-0.057281809580773044
0.89999999999999925,-0.060791399640694542
0.90833333333333255,-0.065500337249193366
0.91666666666666585,-0.070376148190906318
0.92499999999999916,-0.074248780573514361
0.93333333333333246,-0.07712453432793627
0.94166666666666576,-0.079008128091451066
0.94999999999999907,-0.080940509292659321
0.95833333333333237,-0.084100608978118815
0.96666666666666567,-0.088492618387824573
0.97499999999999898,-0.093085691832904133
0.98333333333333228,-0.096711906588353727
0.99166666666666559,-0.099377272611647999
0.99999999999999889,-0.10108624524616432
1.0083333333333322,-0.10287705419805267
1.0166666666666655,-0.1059255669288275
1.0249999999999988,-0.11023570269540725
1.0333333333333321,-0.11477906742733922
1.0416666666666654,-0.1183907640588498
1.0499999999999987,-0.12107687201111075
1.058333333333332,-0.12284194850201914
1.0666666666666653,-0.12472131505867121
1.0749999999999986,-0.12788746842264248
1.0833333333333319,-0.13131299383071163
1.0916666666666652,-0.13383421248507787
1.0999999999999985,-0.13545544358360978
1.1083333333333318,-0.13720977032293352
1.1166666666666651,-0.14026719397760545
1.1249999999999984,-0.14360216179902563
1.1333333333333317,-0.14605320228488664
1.1416666666666651,-0.14762454873886563
1.1499999999999984,-0.14831895206172277
1.1583333333333317,-0.14916573754172308
1.166666666666665,-0.15133110422646009
1.1749999999999983,-0.15481762046235747
1.1833333333333316,-0.15860288577648665
1.1916666666666649,-0.16152918477171255
1.1999999999999982,-0.16360159787989709
1.2083333333333315,-0.16482375542131167
1.2166666666666648,-0.16519783753434689
1.2249999999999981,-0.16574937857278224
1.2333333333333314,-0.16764045656283552
1.2416666666666647,-0.17087324169395229
1.249999999999998,-0.17442816158500085
1.2583333333333313,-0.17715081289690535
1.2666666666666646,-0.17904596973397782
1.2749999999999979,-0.18011698679242741
1.2833333333333312,-0.18036579990053747
1.2916666666666645,-0.18081450580415609
1.2999999999999978,-0.18262136691836486
1.3083333333333311,-0.1847675321381631
1.3166666666666644,-0.18609923349983098
1.3249999999999977,-0.18661886303692793
1.333333333333331,-0.18632740771832892
1.3416666666666643,-0.18624472461997241
1.3499999999999976,-0.18752686549967354
1.358333333333331,-0.18915543346608099
1.3666666666666643,-0.18997709185325187
1.3749999999999976,-0.18999335262001377
1.3833333333333309,-0.18920433055926783
1.3916666666666642,-0.18862839306721466
1.3999999999999975,-0.18942020935735598
1.4083333333333308,-0.19158059486099538
1.4166666666666641,-0.19409317693508413
1.4249999999999974,-0.19580712558657756
1.4333333333333307,-0.19672550778543896
1.441666666666664,-0.19685000787875531
1.4499999999999973,-0.1961809282792881
1.4583333333333306,-0.19573517891222136
1.4666666666666639,-0.19666572201771598
1.4749999999999972,-0.19795587382095395
1.4833333333333305,-0.19845419903301542
1.4916666666666638,-0.19816165141745268
1.4999999999999971,-0.19707780655766829
1.5083333333333304,-0.19621866850784156
1.5166666666666637,-0.19673643217561793
1.524999999999997,-0.19761392489513599
1.5333333333333303,-0.19769906105351767
1.5416666666666636,-0.19699207446052525
1.5499999999999969,-0.19549181921250425
1.5583333333333302,-0.19421399165969669
1.5666666666666635,-0.1943106894104209
1.5749999999999968,-0.19476364041663105
1.5833333333333302,-0.19441940941611394
1.5916666666666635,-0.19327748359321145
1.5999999999999968,-0.19235468480244006
1.6083333333333301,-0.19280415781216631
1.6166666666666634,-0.19360770583047407
1.6249999999999967,-0.19361205566114439
1.63333333333333,-0.19281730093531096
1.6416666666666633,-0.19122214640351462
1.6499999999999966,-0.189843149780203
1.6583333333333299,-0.18983342486500152
1.6666666666666632,-0.19017350916420692
1.6749999999999965,-0.18970858576748881
1.6833333333333298,-0.18843793454368293
1.6916666666666631,-0.18635943852809125
1.6999999999999964,-0.18448998926224808
1.7083333333333297,-0.18398334649326126
1.716666666666663,-0.18483881752407491
1.7249999999999963,-0.18603686223918733
1.7333333333333296,-0.1864227474411394
1.7416666666666629,-0.18599722846097397
1.7499999999999962,-0.18475965552038467
1.7583333333333295,-0.1827079737533544
1.7666666666666628,-0.18085995310183037
1.7749999999999961,-0.18037031343986301
1.7833333333333294,-0.18021683136337646
1.7916666666666627,-0.17924144779492382
1.799999999999996,-0.17744256760632077
1.8083333333333294,-0.1748171775029326
1.8166666666666627,-0.17238384911644664
1.824999999999996,-0.17129849789308771
1.8333333333333293,-0.17155972842646669
1.8416666666666626,-0.17214434385053967
1.8499999999999959,-0.17189331105831543
1.8583333333333292,-0.17080628774193174
1.8666666666666625,-0.16888149606524494
1.8749999999999958,-0.16611572274115494
1.8833333333333291,-0.16352915279008914
1.8916666666666624,-0.16227955100333488
1.8999999999999957,-0.16236530383569983
1.908333333333329,-0.16276109419759627
1.9166666666666623,-0.16230543589405066
1.9249999999999956,-0.16099764056772983
1.9333333333333289,-0.1588355651829462
1.9416666666666622,-0.15684185894246935
1.9499999999999955,-0.15617670229836159
1.9583333333333288,-0.15581259117782525
1.9666666666666621,-0.15458543742110098
1.9749999999999954,-0.15249324464187169
1.9833333333333287,-0.14953254917760861
1.991666666666662,-0.14672648236695235
1.9999999999999953,-0.14523613446963687
2.0083333333333289,-0.14505955110918567
2.0166666666666622,-0.14516777704429867
2.0249999999999955,-0.14439513567653581
2.0333333333333288,-0.14274041354343886
2.0416666666666621,-0.14020090887309405
2.0499999999999954,-0.13780213160685326
2.0583333333333287,-0.13670758647907302
2.066666666666662,-0.13588564643055728
2.0749999999999953,-0.13416749793358254
2.0833333333333286,-0.13155034921698558
2.0916666666666619,-0.12906105696332368
2.0999999999999952,-0.12786463228894562
2.1083333333333285,-0.12692784381351807
2.1166666666666618,-0.12508005612060927
2.1249999999999951,-0.12231827960227129
2.1333333333333284,-0.11967060922178574
2.1416666666666617,-0.11830346328262707
2.149999999999995,-0.11821496919201122
2.1583333333333283,-0.11837188885818892
2.1666666666666616,-0.1176036586493138
2.1749999999999949,-0.11590909870526532
2.1833333333333282,-0.11328549426589403
2.1916666666666615,-0.11076250327682206
2.1999999999999948,-0.10950818834816183
2.2083333333333282,-0.10848649406621061
2.2166666666666615,-0.10652359686716856
2.2249999999999948,-0.10361635970617362
2.2333333333333281,-0.10079530996879486
2.2416666666666614,-0.099229548595511252
2.2499999999999947,-0.09891689087056986
2.258333333333328,-0.098821176042247882
2.2666666666666613,-0.097768491907577179
2.2749999999999946,-0.095757213403620658
2.2833333333333279,-0.092784151355049763
2.2916666666666612,-0.089881077620079172
2.2999999999999945,-0.088218446881454499
2.3083333333333278,-0.087793912594180304
2.3166666666666611,-0.087569856915960781
2.3249999999999944,-0.086370704140500215
2.3333333333333277,-0.08419460770910113
2.341666666666661,-0.081038141861937696
2.3499999999999943,-0.077934089151590849
2.3583333333333276,-0.076054026304510178
2.3666666666666609,-0.07539527327428959
2.3749999999999942,-0.07491861111077637
2.3833333333333275,-0.073446646016203182
2.3916666666666608,-0.070977114569768351
2.3999999999999941,-0.06854486130778828
2.4083333333333274,-0.067323471392466167
2.4166666666666607,-0.066272202473682165
2.424999999999994,-0.064211958858768015
2.4333333333333274,-0.06113955839967998
2.4416666666666607,-0.058089734549834869
2.449999999999994,-0.056236080304933184
2.4583333333333273,-0.055575887596015755
2.4666666666666606,-0.055068292539180295
2.4749999999999939,-0.053534030653283361
2.4833333333333272,-0.050970781366062465
2.4916666666666605,-0.048414810092586309
2.4999999999999938,-0.047041202723744423
2.5083333333333271,-0.046847902885186483
2.5166666666666604,-0.046794151556548931
2.5249999999999937,-0.045700756056636663
2.533333333333327,-0.043566104463243147
2.5416666666666603,-0.040386958524668871
2.5499999999999936,-0.037199261451557074
2.5583333333333269,-0.035177835989715189
2.5666666666666602,-0.034319667221694238
2.5749999999999935,-0.033582385910003058
2.5833333333333268,-0.031785039345849801
2.5916666666666601,-0.028924948477351688
2.5999999999999934,-0.026039077409977296
2.6083333333333267,-0.024303222812476172
2.61666666666666,-0.023714749333108007
2.6249999999999933,-0.023231285578654119
2.6333333333333266,-0.021671838609022626
2.6416666666666599,-0.019034121519350179
2.6499999999999932,-0.016355761576456799
2.6583333333333266,-0.014813174336780468
2.6666666666666599,-0.014403982397318956
2.6749999999999932,-0.014085849262878558
2.6833333333333265,-0.012677787541856248
2.6916666666666598,-0.010177761940889422
2.6999999999999931,-0.0076237934133233029
2.7083333333333264,-0.0061926465039654627
2.7166666666666597,-0.0058820884660635052
2.724999999999993,-0.0056498158204416008
2.7333333333333263,-0.0043148532513649319
2.7416666666666596,-0.0018752940140735115
2.7499999999999929,0.00063066609306950978
2.7583333333333262,0.0020261367546138068
2.7666666666666595,0.0023133153663681704
2.7749999999999928,0.0025344932606634284
2.7833333333333261,0.0038706451436850233
2.7916666666666594,0.0063236622179234344
2.7999999999999927,0.0088553706624520546
2.808333333333326,0.010288960889893598
2.8166666666666593,0.010626705322060854
2.8249999999999926,0.010910908718952389
2.8333333333333259,0.012322558517298019
2.8416666666666592,0.014863639590344839
2.8499999999999925,0.017496199622930728
2.8583333333333258,0.019043726456795338
2.8666666666666591,0.019508684792744032
2.8749999999999925,0.019933410284775997
2.8833333333333258,0.021498902745959839
2.8916666666666591,0.024207351564047568
2.8999999999999924,0.027021253356215906
2.9083333333333257,0.028764649019522619
2.916666666666659,0.029440326436159348
2.9249999999999923,0.029049430382526876
2.9333333333333256,0.02863270378768212
2.9416666666666589,0.029369573483323905
2.9499999999999922,0.031261004461156691
2.9583333333333255,0.033268519586837034
2.9666666666666588,0.034215218705797953
2.9749999999999921,0.034102670681544836
2.9833333333333254,0.033971845319685424
2.9916666666666587,0.035002362578815963
2.999999999999992,0.03719560437643963
3.0083333333333253,0.039513775079020749
3.0166666666666586,0.040780746567365203
3.0249999999999919,0.04099859501389698
3.0333333333333252,0.041208476519650185
3.0416666666666585,0.042590139142900885
3.0499999999999918,0.044104865604151527
3.0583333333333251,0.044575605465617854
3.0666666666666584,0.044003196869717626
3.0749999999999917,0.043427415937663583
3.083333333333325,0.044026685016525562
3.0916666666666583,0.04580175435192483
3.0999999999999917,0.047714648270635859
3.108333333333325,0.04858913343374386
3.1166666666666583,0.048426683975016406
3.1249999999999916,0.048267454399476967
3.1333333333333249,0.049290182736134676
3.1416666666666582,0.051496214928207024
3.1499999999999915,0.053848530469624095
3.1583333333333248,0.055171973798362375
3.1666666666666581,0.055468734899410829
3.1749999999999914,0.054739383570015634
3.1833333333333247,0.054022784998747506
3.191666666666658,0.054496410148567681
3.1999999999999913,0.056160821316302283
3.2083333333333246,0.057978523246533485
3.2166666666666579,0.058773894942535806
3.2249999999999912,0.058548296963398562
3.2333333333333245,0.058341109003500403
3.2416666666666578,0.059330231455262235
3.2499999999999911,0.060477426893685328
3.2583333333333244,0.060606297092816792
3.2666666666666577,0.059717147160617032
3.274999999999991,0.058848234183323161
3.2833333333333243,0.059176408745090912
3.2916666666666576,0.060702025392088077
3.2999999999999909,0.062387713574397784
3.3083333333333242,0.063058027766642988
3.3166666666666575,0.062714134125868598
3.3249999999999909,0.061355586186296274
3.3333333333333242,0.060019781953786711
3.3416666666666575,0.059882761507703261
3.3499999999999908,0.060944227646921777
3.3583333333333241,0.062166165679250214
3.3666666666666574,0.062372431568673614
3.3749999999999907,0.061563453606329747
3.383333333333324,0.060777473164612926
3.3916666666666573,0.061191302590376237
3.3999999999999906,0.062805415058606914
3.4083333333333239,0.064582724647434281
3.4166666666666572,0.065348113909871219
3.4249999999999905,0.065102902302258417
3.4333333333333238,0.063846799332878665
3.4416666666666571,0.062617165953686688
3.4499999999999904,0.062589976626109586
3.4583333333333237,0.063765088008441245
3.466666666666657,0.065104863548303374
3.4749999999999903,0.065433592836357524
3.4833333333333236,0.064751899906029198
3.4916666666666569,0.064097972157308974
3.4999999999999902,0.064648527772005859
3.5083333333333235,0.065365112404005249
3.5166666666666568,0.065071128020460028
3.5249999999999901,0.063766206417049442
3.5333333333333234,0.062487638582979781
3.5416666666666567,0.06241133596442839
3.5499999999999901,0.063537086674567159
3.5583333333333234,0.064827166094525893
3.5666666666666567,0.065105765925717263
3.57499999999999,0.064373430235795906
3.5833333333333233,0.062629092858949992
3.5916666666666566,0.060909447828330632
3.5999999999999899,0.060389873559299173
3.6083333333333232,0.061069538001125238
3.6166666666666565,0.061909891534006778
3.6249999999999898,0.06173420902013451
3.6333333333333231,0.060542311827972706
3.6416666666666564,0.05937192130554142
3.6499999999999897,0.059399384725155296
3.658333333333323,0.060624635165621311
3.6666666666666563,0.062009867707457096
3.6749999999999896,0.062379163956316021
3.6833333333333229,0.061733211277393722
3.6916666666666562,0.060071083647064663
3.6999999999999895,0.058429803387173955
3.7083333333333228,0.057985079907269511
3.7166666666666561,0.058736183969852571
3.7249999999999894,0.059644494893592755
3.7333333333333227,0.059533194308811252
3.741666666666656,0.058402206380410486
3.7499999999999893,0.057289508585043301
3.7583333333333226,0.057371709509817986
3.7666666666666559,0.057609134197094493
3.7749999999999893,0.056823813053106777
3.7833333333333226,0.055014604149566243
3.7916666666666559,0.053218671210148623
3.7999999999999892,0.052611904857461041
3.8083333333333225,0.053193343095130387
3.8166666666666558,0.053923738129355359
3.8249999999999891,0.053625555534557501
3.8333333333333224,0.052298425938107622
3.8416666666666557,0.0509804494181356
3.849999999999989,0.050848410630360226
3.8583333333333223,0.051902017366403451
3.8666666666666556,0.053102616406757917
3.8749999999999889,0.053273303123568296
3.8833333333333222,0.052414447789170884
3.8916666666666555,0.050524797625277
3.8999999999999888,0.048641694451014808
3.9083333333333221,0.047941230907185009
3.9166666666666554,0.048422307264013406
3.9249999999999887,0.049045230517740152
3.933333333333322,0.048631956231300628
3.9416666666666553,0.047181936639033528
3.9499999999999886,0.045733405051067474
3.9583333333333219,0.045463311471593888
3.9666666666666552,0.04637116593161178
3.9749999999999885,0.047417771058941328
3.9833333333333218,0.047425596849087009
3.9916666666666551,0.046394757096416592
3.9999999999999885,0.044323736896968204
4.0083333333333222,0.042249975235821927
4.0166666666666559,0.041349693353095428
4.0249999999999897,0.041621498120812984
4.0333333333333234,0.042025012923881222
4.0416666666666572,0.041381421638444917
4.0499999999999909,0.039689821684318352
4.0583333333333247,0.037988489809703339
4.0666666666666584,0.037454458892750196
4.0749999999999922,0.03808685612523776
4.0833333333333259,0.038845653510738605
4.0916666666666597,0.038552380035611324
4.0999999999999934,0.037206681323737598
4.1083333333333272,0.035847490236761551
4.1166666666666609,0.035652472248980958
4.1249999999999947,0.036621241261513768
4.1333333333333284,0.037714191606284073
4.1416666666666622,0.037753286264446621
4.1499999999999959,0.036738688169457245
