Time,Theta,ThetaDot,X,XDot
0.0083333333333333332,3.1415926535897931,2.2025272682665144e-17,3.9107373371209438e-21,1.0011487583029616e-18
0.016666666666666666,3.1410718665068034,-0.13330600878261289,-0.00026041456360946519,-0.066665423922628836
0.025000000000000001,3.140482363469729,0.00018723146396303417,-0.00055551822859023394,8.5105295672570011e-06
0.033333333333333333,3.1399639167209852,-0.13291913388020318,-0.0008158263930720124,-0.066647831710591562
0.041666666666666664,3.1393784144018997,0.00077280881506860792,-0.0011107481681228136,3.5127643929375348e-05
0.049999999999999996,3.1388656231589618,-0.13213513992804143,-0.0013707992158309712,-0.066612181468508308
0.058333333333333327,3.1382874226719801,0.0017532987634130207,-0.0016653890198085857,7.9695091410888694e-05
0.066666666666666666,3.1377835688229458,-0.13095865583357744,-0.0019250337489702231,-0.066558684191590917
0.074999999999999997,3.1372159281277159,0.0031229017058953638,-0.0022191434662957002,0.00014194894635544218
0.083333333333333329,3.1367242405984399,-0.12939666579558812,-0.0024782350870743539,-0.066487658204165412
0.09166666666666666,3.1361703549615463,0.0048734860838286608,-0.0027717194573946015,0.00022151919388140734
0.099999999999999992,3.1356939903518835,-0.12745846759896157,-0.0030301144733842367,-0.066399527224982144
0.10833333333333332,3.1351569731818443,0.0069946367321052517,-0.0033228319639564611,0.00031793195805299417
0.11666666666666665,3.1346989968333561,-0.12515561695699209,-0.0035803910337388724,-0.066294817788047924
0.12499999999999999,3.1341818610044783,0.0094737169253529228,-0.0038722046892307013,0.00043061235823411027
0.13333333333333333,3.133745228613428,-0.12250185824777028,-0.0041287934627674419,-0.066174156037146589
0.14166666666666666,3.1332508683908098,0.012295943743093545,-0.0044195717273217867,0.00055888797424666695
0.14999999999999999,3.132838408276887,-0.11951304207543553,-0.0046750616521248518,-0.066038263916415041
0.15833333333333333,3.1323695819511306,0.015444476295330771,-0.0049646791587287346,0.00070199289706041664
0.16666666666666666,3.1319839780883183,-0.11620703016782237,-0.0052189482509598026,-0.065887954783245398
0.17499999999999999,3.1315432914241659,0.018900516272803064,-0.0055072865733777074,0.00085907233814068191
0.18333333333333332,3.1311870673355178,-0.11260358819882023,-0.0057602201492612777,-0.065724128473350935
0.19166666666666665,3.1307769579336395,0.022643420212813188,-0.0060471685120437142,0.0010291877672978528
0.19999999999999998,3.1304524615464198,-0.10872426719610458,-0.0062986598752420506,-0.065547765851041648
0.20833333333333331,3.1300751842120111,0.026650822802515871,-0.0065841158175956194,0.001211322545937415
0.21666666666666665,3.1297845737638421,-0.10459227426234888,-0.0068340668984801407,-0.065359922880587562
0.22499999999999998,3.1294421869695519,0.030898770477163443,-0.0071179368880838444,0.0014043880200073485
0.23333333333333331,3.1291874180498036,-0.10023233340027582,-0.0073662588311454473,-0.065161724257004117
0.24166666666666664,3.1288817715738935,0.035361864511368996,-0.007648458824316055,0.0016072300346773047
0.24999999999999997,3.1286645853777162,-0.095670537288660998,-0.0078950725202828979,-0.064954356636680907
0.2583333333333333,3.1283973091912518,0.040013412747176777,-0.0081755284652269868,0.001818635830847657
0.26666666666666666,3.1282192220563392,-0.090934190907487958,-0.00842036502479971,-0.064739061510010798
0.27500000000000002,3.1279917165256927,0.044825589053802781,-0.0086990133050389128,0.002037341281956432
0.28333333333333338,3.1278540108141684,-0.086051647955715571,-0.0089420144715073539,-0.064517127759584861
0.29166666666666674,3.127667438277248,0.049769599570457491,-0.0092188022869236722,0.0022620384282006816
0.3000000000000001,3.1275711546570353,-0.081052141044486478,-0.0094599207852937503,-0.064289883948632748
0.30833333333333346,3.1274264324234373,0.054815854745762851,-0.0097348064686114018,0.0024913832641866923
0.31666666666666682,3.1273723635951245,-0.075965606682040415,-0.0099740062892434127,-0.064058690385238509
0.32500000000000018,3.1272701584119256,0.05993414615499236,-0.010246959556140384,0.0027240037351385152
0.33333333333333354,3.1272588443185603,-0.070822506094087204,-0.010484216171279209,-0.063824931008486269
0.3416666666666669,3.1271995683347691,0.065093827049719583,-0.010755218302703989,0.0029585078960961912
0.35000000000000026,3.12723129288322,-0.06565364294497758,-0.010990518814665404,-0.063590005143120215
0.35833333333333361,3.1272151011370242,0.07026399557348495,-0.011259562770320591,0.0031934921879951551
0.36666666666666697,3.1272898904505837,-0.060489979040707187,-0.011492905990485353,-0.063355319169570087
0.37500000000000033,3.1273166798945127,0.075413679561794511,-0.011759996452828735,0.003427549784114919
0.38333333333333369,3.1274343021074062,-0.055362449104649242,-0.011991392910985534,-0.063122278156320211
0.39166666666666705,3.1275037121774432,0.080512021835162761,-0.012256546259490008,0.0036592789601011446
0.40000000000000041,3.1276636787727452,-0.050301775720981913,-0.012486018143459388,-0.062892277501606239
0.40833333333333377,3.1277750934982889,0.085528464890033129,-0.012749262359264312,0.0038872914405914871
0.41666666666666713,3.127976662181676,-0.045338285539075387,-0.012976843385126842,-0.062666694631317271
0.42500000000000049,3.1281292138241579,0.090432933894282877,-0.013238217886604562,0.0041102206754134911
0.43333333333333385,3.1283713929168093,-0.040501727824683191,-0.013463953100247138,-0.062446880799765084
0.44166666666666721,3.1285639671157015,0.095196016901682737,-0.013723508510398441,0.0043267299983781498
0.45000000000000057,3.1288455214406694,-0.035821096430633248,-0.013947454021481844,-0.062234153039647223
0.45833333333333393,3.1290767638366939,0.099789141213195404,-0.014205251868461707,0.0045355206218846691
0.46666666666666728,3.1293962220642162,-0.03132445624086725,-0.014427474518298788,-0.062029786307064995
0.47500000000000064,3.1296645463608082,0.10418474483239273,-0.014683586870758217,0.0047353394209003179
0.483333333333334,3.1300202097693264,-0.027038775117140833,-0.014904163835974676,-0.061835005866835921
0.49166666666666736,3.130323807184785,0.10835644198760505,-0.015158672875283864,0.0049249864604170041
0.50000000000000067,3.1307137597860071,-0.022989762347461092,-0.015377691209510469,-0.061650979962538002
0.50833333333333397,3.1310506098404973,0.11227918172473056,-0.015630688741301489,0.005103322221243857
0.51666666666666727,3.131472729808638,-0.019201714559453971,-0.015848244857516097,-0.061478812814707864
0.52500000000000058,3.1318406123821889,0.11592939861191821,-0.016099831765347992,0.0052692744800097637
0.53333333333333388,3.1322925847196972,-0.015697370020341338,-0.01631603086184601,-0.06131953798935659
0.54166666666666718,3.1326890933096547,0.1192851546405882,-0.016566316506148971,0.0054218448005540088
0.55000000000000049,3.1331684236742796,-0.012497772198147449,-0.016781271939469228,-0.061174112177431961
0.55833333333333379,3.1335909797734636,0.12232627145640163,-0.017030373505265466,0.0055601145955119979
0.5666666666666671,3.1340950093844153,-0.0096221434062630055,-0.017244206113732442,-0.061043409424018688
0.5750000000000004,3.1345408778943757,0.1250344521087193,-0.017492247910956205,0.0056832507188799538
0.5833333333333337,3.135066799428802,-0.0070877692957033358,-0.017705085292816215,-0.060928215843903601
0.59166666666666701,3.1355331050162816,0.12739339156762866,-0.017952198013361741,0.0057905105526915154
0.60000000000000031,3.1360779794012026,-0.0049098948965512548,-0.018164173763787532,-0.060829224857628303
0.60833333333333361,3.1365617237001064,0.12938887532350798,-0.018410493699698296,0.0058812465536655922
0.61666666666666692,3.1371224976994356,-0.0031016328424178282,-0.018621746611209231,-0.060747032979298635
0.62500000000000022,3.1376205772554262,0.13100886545503809,-0.018867414838681394,0.0059549102287956108
0.63333333333333353,3.1381941017467909,-0.0016738843396436626,-0.019078088069774152,-0.060682136184222975
0.64166666666666683,3.1387033265970228,0.13224357362715775,-0.019323249603879433,0.0060110555123282982
0.65000000000000013,3.1392863754288358,-0.00063527336678608805,-0.019533489820881284,-0.06063492688092588
0.65833333333333344,3.1398034882053927,0.13308552056022294,-0.019778292746115818,0.0060493415204070445
0.66666666666666674,3.1403927775209781,7.9054898259236367e-06,-0.019988249243458923,-0.060605691508252221
0.67500000000000004,3.1409144729633303,0.1335295815950448,-0.020232843825393095,0.0060695346637939336
0.68333333333333335,3.1415066808760215,0.00025172524151697087,-0.020442667629659489,-0.060594608774178937
0.69166666666666665,-3.1411556815443409,0.13357301806491576,-0.020687205413096751,0.0060715101034922985
0.69999999999999996,-3.1405638950434485,9.4650506022234474e-05,-0.020897048376298973,-0.060601748548631235
0.70833333333333326,-3.1410846159322321,-0.13339635398968058,-0.021662510347540371,-0.12727558120123283
0.71666666666666656,3.1404681388032234,-0.26669998107209292,-0.022983560620807322,-0.19394089171902837
0.72499999999999987,3.1377260989666391,-0.39961573548748047,-0.024860092280129323,-0.26058845564973027
0.73333333333333317,3.1338785901125266,-0.53194216456670962,-0.027291920613091117,-0.32720878859094543
0.74166666666666647,3.1289313145812696,-0.66347641019012327,-0.030278780448102494,-0.39379202039362649
0.74999999999999978,3.1228916720069435,-0.79401380402135524,-0.033820322475907279,-0.46032777823242943
0.75833333333333308,3.1157687758022883,-0.92334752070845005,-0.037916108641015071,-0.52680508155781425
0.76666666666666639,3.1075734722605026,-1.0512683035598749,-0.042565606713745416,-0.59321225191041282
0.77499999999999969,3.0983183616142651,-1.1775642768641281,-0.047768184178186977,-0.65953684051434947
0.78333333333333299,3.0880178202762716,-1.3020208584744923,-0.053523101595299771,-0.7257655764602281
0.7916666666666663,3.0766880233750791,-1.4244207854590032,-0.059829505623222541,-0.79188433812657033
0.7999999999999996,3.0643469665976344,-1.544544264452145,-0.066686421898066811,-0.85787815025641923
0.8083333333333329,3.0510144862587683,-1.6621692567745929,-0.074092747997447889,-0.92373120879003134
0.81666666666666621,3.0367122764416075,-1.7770719063550791,-0.082047246724973391,-0.98942693514339175
0.82499999999999951,3.0214639019954839,-1.8890271159544649,-0.090548539966052971,-1.0549480611071429
0.83333333333333282,3.0052948061436386,-1.997809274139434,-0.09959510337282225,-1.1202767449175037
0.84166666666666612,2.9882323114461777,-2.1031931318943471,-0.10918526213779409,-1.185394718321888
0.84999999999999942,2.9703056128884162,-2.2049548237431127,-0.11931718811121084,-1.2502834636364673
0.85833333333333273,2.9515457619243808,-2.3028730238665993,-0.12998889850522699,-1.3149244188882063
0.86666666666666603,2.9319856404025098,-2.3967302230760312,-0.14119825640844094,-1.3792992081758768
0.87499999999999933,2.9116599234367295,-2.4863141078105317,-0.15294297330659706,-1.4433898934075704
0.88333333333333264,2.8906050304610242,-2.5714190177755154,-0.16522061376950156,-1.5071792426180703
0.89166666666666594,2.8688590639170877,-2.6518474546626591,-0.17802860242070412,-1.5706510091855759
0.89999999999999925,2.8464617352687251,-2.7274116108398285,-0.19136423325607721,-1.6337902155042652
0.90833333333333255,2.8234542783071048,-2.7979348842150085,-0.20522468132128424,-1.6965834340773527
0.91666666666666585,2.7998793499996322,-2.8632533438834433,-0.21960701669787,-1.7590190586208929
0.92499999999999916,2.7757809194323468,-2.9232171108399041,-0.23450822068530913,-1.8210875576498424
0.93333333333333246,2.7512041456902647,-2.9776916190942702,-0.24992520400404669,-1.8827817031811378
0.94166666666666576,2.7261952458002154,-3.0265587250072579,-0.26585482678476902,-1.9440967676452277
0.94999999999999907,2.7008013541147888,-3.0697176365156165,-0.28229392005428555,-2.0050306828417903
0.95833333333333237,2.675070374733004,-3.1070856390047421,-0.29923930838080226,-2.0655841557838142
0.96666666666666567,2.6490508287237771,-3.1385986006898077,-0.3166878333030777,-2.125760737506118
0.97499999999999898,2.6227916980347801,-3.1642112471920902,-0.33463637714062627,-2.1855668423145174
0.98333333333333228,2.5963422680272674,-3.1838972022036072,-0.35308188676692487,-2.2450117164538268
0.99166666666666559,2.569751970574953,-3.1976487983542699,-0.37202139692505148,-2.3041073567045132
0.99999999999999889,2.5430702296035772,-3.2054766692685761,-0.39145205267529731,-2.362868380905363
1.0083333333333322,2.5163463108314521,-3.2074091399908595,-0.41137113058641145,-2.4213118537743927
1.0166666666666655,2.4896291773069423,-3.2034914381904644,-0.43177605831507132,-2.4794570726023091
1.0249999999999988,2.4629673521353301,-3.1937847526241723,-0.45266443226029313,-2.5373253183753075
1.0333333333333321,2.436408789555113,-3.1783651681083014,-0.47403403302884289,-2.5949395786152469
1.0416666666666654,2.4100007552734546,-3.1573225076984168,-0.49588283850210685,-2.6523242486900593
1.0499999999999987,2.3837897167132063,-3.130759112932763,-0.51820903435211796,-2.7095048185462356
1.058333333333332,2.3578212435700028,-3.0987885919788236,-0.54101102191232253,-2.7665075517635285
1.0666666666666653,2.3321399188365399,-3.0615345634987401,-0.56428742336524507,-2.8233591635560851
1.0749999999999986,2.306789260229924,-3.0191294212234636,-0.58803708426270906,-2.8800865038795163
1.0833333333333319,2.281811651762677,-2.9717131408218562,-0.61225907344329644,-2.9367162511901488
1.0916666666666652,2.2572482850326305,-2.9194321468952285,-0.63695268045518894,-2.9932746216833053
1.0999999999999985,2.2331391096735196,-2.8624382540333899,-0.6621174106297395,-3.049787098053367
1.1083333333333318,2.2095227923070784,-2.8008876920243075,-0.68775297798163515,-3.1062781810077262
1.1166666666666651,2.1864366832677091,-2.7349402216733427,-0.7138592961353033,-3.162771165962992
1.1249999999999984,2.1639167903302123,-2.6647583443814389,-0.74043646749441006,-3.219287946582444
1.1333333333333317,2.1419977586563799,-2.5905066057396366,-0.76748477088229083,-3.2758488461000579
1.1416666666666651,2.1207128561839634,-2.5123509909701158,-0.7950046478864643,-3.3324724767335963
1.1499999999999984,2.1000939637075158,-2.4304584081006171,-0.82299668814065363,-3.3891756269268511
1.1583333333333317,2.0801715689409273,-2.3449962532923809,-0.85146161377364538,-3.445973175683668
1.166666666666665,2.0609747639022711,-2.2561320517236698,-0.88040026324657417,-3.5028780328643925
1.1749999999999983,2.0425312450191941,-2.1640331668181885,-0.90981357478956426,-3.5599011040063151
1.1833333333333316,2.0248673154144221,-2.0688665703471369,-0.93970256963569954,-3.6170512779984225
1.1916666666666649,2.0080078888932755,-1.9707986659666996,-0.97006833523571678,-3.6743354357809652
1.1999999999999982,1.9919764952161607,-1.8699951590194805,-1.000912008621156,-3.7317584781443456
1.2083333333333315,1.9767952862971401,-1.766620965870737,-1.0322347600674595,-3.7893233706620122
1.2166666666666648,1.9624850430236362,-1.6608401566141704,-1.0640377771921368,-3.8470312038003516
1.2249999999999981,1.9490651824412395,-1.5528159256193472,-1.0963222496069762,-3.9048812662974632
1.2333333333333314,1.9365537650910425,-1.4427105850621837,-1.1290893542276681,-3.9628711299849142
1.2416666666666647,1.9249675023248136,-1.3306855772472683,-1.1623402413294186,-4.020996744335366
1.249999999999998,1.914321763455707,-1.2169015021693903,-1.1960760214232955,-4.0792525391481247
1.2583333333333313,1.9046305826294814,-1.1015181573518469,-1.230297753015382,-4.1376315339284968
1.2666666666666646,1.8959066653237659,-0.98469458752774974,-1.2650064312993714,-4.1961254526701133
1.2749999999999979,1.8881613944013558,-0.8665891421902866,-1.3002029778230872,-4.2547248429073958
1.2833333333333312,1.881404835658403,-0.74735953942624112,-1.3358882311606028,-4.3134191980637073
1.2916666666666645,1.8756457428202793,-0.62716293476569263,-1.3720629386141128,-4.3721970822755267
1.2999999999999978,1.870891561947438,-0.50615599403434886,-1.4087277489634753,-4.4310462570206353
1.3083333333333311,1.8671484352212151,-0.38449496939032368,-1.4458832062762612,-4.4899538090155868
1.3166666666666644,1.8646991011430789,-0.19130773604692164,-1.4830525987259682,-4.4267616711857531
1.3249999999999977,1.86385897618749,0.0017295215409560017,-1.5196955906260874,-4.3636133721802217
1.333333333333331,1.8646273681953895,0.19475961827365917,-1.5558123815832337,-4.300466493164512
1.3416666666666643,1.8670047756797092,0.38792540246430002,-1.591402817763192,-4.2372786203509429
1.3499999999999976,1.8709928857433384,0.58136915051488802,-1.6264663917667879,-4.1740073029170057
1.358333333333331,1.8765945669126516,0.77523194891532643,-1.6610022421726249,-4.1106100164518518
1.3666666666666643,1.8838138567266032,0.9696530494867126,-1.6950091528158076,-4.0470441378641882
1.3749999999999976,1.8926559437996462,1.1647691825437456,-1.7284855519220248,-3.9832669379070254
1.3833333333333309,1.903127143942029,1.3607138107398871,-1.7614295112688814,-3.9192355978123321
1.3916666666666642,1.9152348697677137,1.5576163037576023,-1.7938387456021796,-3.8549072569815683
1.3999999999999975,1.928987593042387,1.7556010106864894,-1.8257106125948619,-3.7902390992448827
1.4083333333333308,1.9443947988157013,1.954786202870346,-1.8570421137015098,-3.7251884858787823
1.4166666666666641,1.9614669301367909,2.1552828551896877,-1.8878298963325122,-3.6597131443512931
1.4249999999999974,1.9802153218639482,2.357193228195245,-1.9180702578501005,-3.5937714226304869
1.4333333333333307,2.0006521217422804,2.5606092072821629,-1.9477591519740021,-3.5273226198218204
1.441666666666664,2.0227901965319308,2.7656103483264842,-1.9768921982779071,-3.4603274048522907
1.4499999999999973,2.0466430205204431,2.9722615721319849,-2.0054646955592146,-3.392748335833546
1.4583333333333306,2.0722245432448663,3.1806104430427546,-2.0334716399729835,-3.3245504935209658
1.4666666666666639,2.0995490326850743,3.3906839607570345,-2.0609077489351191,-3.2557022428097935
1.4749999999999972,2.1286308895783104,3.6024847895993064,-2.08776749191667,-3.1861761362882599
1.4833333333333305,2.1594844278634762,3.8159868474981904,-2.1140451293661502,-3.1159499732486129
1.4916666666666638,2.1921236156215196,4.0311301793575991,-2.1397347611028192,-3.045008025903202
1.4999999999999971,2.2265617702807479,4.2478150486225603,-2.164830385610788,-2.97334244142837
1.5083333333333304,2.2628112013693107,4.4658951994728984,-2.1893259717171603,-2.900954823317996
1.5166666666666637,2.3008827938139502,4.6851702737159568,-2.2132155441380186,-2.8278579877159782
1.524999999999997,2.340785524828334,4.9053774151533389,-2.2364932842987759,-2.7540778791686393
1.5333333333333303,2.3825259079650789,5.1261821643559022,-2.2591536476486365,-2.6796556148148074
1.5416666666666636,2.4261073591186637,5.3471688426106283,-2.2811914983549353,-2.6046496057038144
1.5499999999999969,2.4715294813891266,5.5678307484667604,-2.3026022617389592,-2.5291376782341595
1.5583333333333302,2.5187872689943096,5.7875606445669394,-2.3233820940554115,-2.4532190876783941
1.5666666666666635,2.56787023508801,6.0056421927760493,-2.3435280681814152,-2.3770162803043857
1.5749999999999968,2.6187614745857455,6.2212431918579245,-2.3630383724383965,-2.3006762229158295
1.5833333333333302,2.6714366809832848,6.4334116648016462,-2.3819125181168794,-2.2243710826565022
1.5916666666666635,2.725863145536632,6.6410760019021353,-2.4001515493463148,-2.1482980116823169
1.5999999999999968,2.7819987776168085,6.8430504487480244,-2.4177582468446945,-2.0726777789585049
1.6083333333333301,2.8397911957301143,7.038047184120793,-2.4347373149654854,-1.9977520047391784
1.6166666666666634,2.8991769483338312,7.2246960080802545,-2.4510955395857055,-1.9237788022187023
1.6249999999999967,2.9600809304927838,7.4015722120669958,-2.4668419030789219,-1.8510267232761142
1.63333333333333,3.0224160646623326,7.5672325149097261,-2.481987642267879,-1.7797670437202808
1.6416666666666633,3.0860833095324764,7.7202580513223111,-2.4965462362201802,-1.7102646018022929
